Time(s)	xt(m)	vt(m/s)	xb(m)	vb(m/s)
0.000000	0.000000	0.000000	0.000000	0.000000
0.010000	0.000110	0.022087	0.000000	0.000064
0.020000	0.000442	0.044214	0.000002	0.000371
0.030000	0.000995	0.066372	0.000009	0.001093
0.040000	0.001769	0.088550	0.000026	0.002397
0.050000	0.002766	0.110737	0.000059	0.004441
0.060000	0.003984	0.132922	0.000118	0.007374
0.070000	0.005424	0.155099	0.000210	0.011333
0.080000	0.007086	0.177260	0.000348	0.016444
0.090000	0.008969	0.199408	0.000543	0.022816
0.100000	0.011074	0.221543	0.000809	0.030542
0.110000	0.013400	0.243672	0.001159	0.039701
0.120000	0.015948	0.265799	0.001608	0.050351
0.130000	0.018716	0.287928	0.002171	0.062533
0.140000	0.021706	0.310057	0.002864	0.076270
0.150000	0.024917	0.332182	0.003702	0.091565
0.160000	0.028350	0.354290	0.004700	0.108403
0.170000	0.032003	0.376355	0.005875	0.126748
0.180000	0.035877	0.398354	0.007240	0.146548
0.190000	0.039970	0.420246	0.008810	0.167732
0.200000	0.044281	0.441998	0.010599	0.190211
0.210000	0.048809	0.463570	0.012619	0.213879
0.220000	0.053552	0.484922	0.014880	0.238617
0.230000	0.058507	0.506031	0.017394	0.264289
0.240000	0.063671	0.526878	0.020169	0.290747
0.250000	0.069043	0.547460	0.023211	0.317833
0.260000	0.074620	0.567789	0.026527	0.345378
0.270000	0.080398	0.587892	0.030120	0.373207
0.280000	0.086377	0.607804	0.033991	0.401143
0.290000	0.092554	0.627582	0.038142	0.429003
0.300000	0.098928	0.647280	0.042571	0.456607
0.310000	0.105500	0.666957	0.047273	0.483778
0.320000	0.112268	0.686676	0.052244	0.510346
0.330000	0.119233	0.706491	0.057477	0.536147
0.340000	0.126398	0.726445	0.062964	0.561032
0.350000	0.133763	0.746576	0.068694	0.584860
0.360000	0.141330	0.766904	0.074657	0.607508
0.370000	0.149102	0.787436	0.080840	0.628870
0.380000	0.157080	0.808169	0.087230	0.648855
0.390000	0.165266	0.829089	0.093813	0.667393
0.400000	0.173662	0.850161	0.100573	0.684431
0.410000	0.182269	0.871350	0.107496	0.699939
0.420000	0.191089	0.892617	0.114567	0.713903
0.430000	0.200122	0.913921	0.121769	0.726329
0.440000	0.209367	0.935219	0.129088	0.737243
0.450000	0.218826	0.956463	0.136509	0.746690
0.460000	0.228496	0.977613	0.144017	0.754728
0.470000	0.238378	0.998622	0.151599	0.761435
0.480000	0.248468	1.019440	0.159242	0.766902
0.490000	0.258766	1.040021	0.166933	0.771233
0.500000	0.269268	1.060320	0.174663	0.774542
0.510000	0.279971	1.080285	0.182421	0.776956
0.520000	0.290872	1.099867	0.190200	0.778605
0.530000	0.301967	1.119021	0.197991	0.779630
0.540000	0.313251	1.137707	0.205791	0.780170
0.550000	0.324719	1.155892	0.213593	0.780368
0.560000	0.336367	1.173556	0.221397	0.780368
0.570000	0.348189	1.190696	0.229201	0.780308
0.580000	0.360179	1.207321	0.237004	0.780325
0.590000	0.372334	1.223452	0.244808	0.780550
0.600000	0.384647	1.239129	0.252616	0.781105
0.610000	0.397115	1.254401	0.260431	0.782107
0.620000	0.409734	1.269323	0.268260	0.783662
0.630000	0.422500	1.283960	0.276107	0.785866
0.640000	0.435412	1.298375	0.283979	0.788807
0.650000	0.448467	1.312621	0.291886	0.792561
0.660000	0.461664	1.326749	0.299834	0.797190
0.670000	0.475002	1.340790	0.307833	0.802748
0.680000	0.488480	1.354754	0.315892	0.809275
0.690000	0.502097	1.368641	0.324021	0.816799
0.700000	0.515852	1.382430	0.332231	0.825336
0.710000	0.529745	1.396089	0.340531	0.834886
0.720000	0.543773	1.409573	0.348932	0.845439
0.730000	0.557936	1.422833	0.357443	0.856968
0.740000	0.572229	1.435814	0.366075	0.869436
0.750000	0.586651	1.448471	0.374835	0.882789
0.760000	0.601197	1.460772	0.383733	0.896961
0.770000	0.615865	1.472697	0.392777	0.911874
0.780000	0.630650	1.484238	0.401973	0.927439
0.790000	0.645549	1.495399	0.411327	0.943553
0.800000	0.660557	1.506200	0.420845	0.960109
0.810000	0.675671	1.516664	0.430531	0.976986
0.820000	0.690889	1.526820	0.440386	0.994063
0.830000	0.706207	1.536698	0.450412	1.011210
0.840000	0.721622	1.546321	0.460610	1.028299
0.850000	0.737133	1.555704	0.470977	1.045198
0.860000	0.752735	1.564850	0.481513	1.061775
0.870000	0.768429	1.573745	0.492212	1.077905
0.880000	0.784209	1.582373	0.503069	1.093463
0.890000	0.800075	1.590705	0.514078	1.108330
0.900000	0.816022	1.598711	0.525233	1.122395
0.910000	0.832048	1.606356	0.536523	1.135553
0.920000	0.848148	1.613616	0.547941	1.147708
0.930000	0.864319	1.620472	0.559474	1.158773
0.940000	0.880556	1.626915	0.571112	1.168671
0.950000	0.896856	1.632953	0.582843	1.177338
0.960000	0.913214	1.638602	0.594655	1.184722
0.970000	0.929627	1.643887	0.606533	1.190780
0.980000	0.946091	1.648845	0.618466	1.195485
0.990000	0.962603	1.653515	0.630438	1.198826
1.000000	0.979160	1.657940	0.642438	1.200805
1.010000	0.995761	1.662154	0.654450	1.201436
1.020000	1.012403	1.666179	0.666462	1.200750
1.030000	1.029084	1.670029	0.678461	1.198794
1.040000	1.045803	1.673710	0.690434	1.195625
1.050000	1.062558	1.677214	0.702370	1.191318
1.060000	1.079346	1.680525	0.714257	1.185955
1.070000	1.096167	1.683620	0.726085	1.179632
1.080000	1.113018	1.686479	0.737846	1.172454
1.090000	1.129896	1.689078	0.749532	1.164532
1.100000	1.146799	1.691400	0.761135	1.155987
1.110000	1.163723	1.693442	0.772650	1.146942
1.120000	1.180667	1.695206	0.784073	1.137524
1.130000	1.197626	1.696705	0.795400	1.127863
1.140000	1.214600	1.697964	0.806630	1.118087
1.150000	1.231585	1.699015	0.817762	1.108325
1.160000	1.248580	1.699890	0.828796	1.098704
1.170000	1.265582	1.700616	0.839736	1.089345
1.180000	1.282591	1.701215	0.850585	1.080366
1.190000	1.299606	1.701699	0.861345	1.071881
1.200000	1.316625	1.702061	0.872024	1.063992
1.210000	1.333647	1.702281	0.882628	1.056796
1.220000	1.350670	1.702322	0.893163	1.050377
1.230000	1.367693	1.702131	0.903638	1.044812
1.240000	1.384712	1.701646	0.914062	1.040161
1.250000	1.401724	1.700796	0.924444	1.036471
1.260000	1.418726	1.699517	0.934795	1.033776
1.270000	1.435713	1.697746	0.945123	1.032093
1.280000	1.452679	1.695432	0.955440	1.031422
1.290000	1.469620	1.692539	0.965755	1.031746
1.300000	1.486528	1.689051	0.976078	1.033033
1.310000	1.503399	1.684975	0.986419	1.035234
1.320000	1.520226	1.680329	0.996786	1.038284
1.330000	1.537003	1.675142	1.007187	1.042104
1.340000	1.553727	1.669452	1.017630	1.046601
1.350000	1.570391	1.663304	1.028121	1.051670
1.360000	1.586992	1.656744	1.038665	1.057199
1.370000	1.603525	1.649810	1.049266	1.063064
1.380000	1.619987	1.642533	1.059927	1.069136
1.390000	1.636374	1.634931	1.070649	1.075283
1.400000	1.652684	1.627011	1.081432	1.081367
1.410000	1.668913	1.618768	1.092276	1.087251
1.420000	1.685058	1.610185	1.103176	1.092798
1.430000	1.701116	1.601243	1.114130	1.097872
1.440000	1.717082	1.591921	1.125132	1.102341
1.450000	1.732953	1.582200	1.136174	1.106077
1.460000	1.748725	1.572065	1.147250	1.108961
1.470000	1.764393	1.561510	1.158350	1.110878
1.480000	1.779953	1.550537	1.169464	1.111724
1.490000	1.795402	1.539156	1.180581	1.111403
1.500000	1.810735	1.527390	1.191688	1.109833
1.510000	1.825949	1.515267	1.202773	1.106944
1.520000	1.841039	1.502817	1.213823	1.102678
1.530000	1.856004	1.490072	1.224822	1.096991
1.540000	1.870840	1.477060	1.235758	1.089857
1.550000	1.885545	1.463807	1.246614	1.081264
1.560000	1.900115	1.450329	1.257378	1.071215
1.570000	1.914550	1.436636	1.268034	1.059731
1.580000	1.928847	1.422728	1.278568	1.046846
1.590000	1.943004	1.408601	1.288966	1.032611
1.600000	1.957019	1.394242	1.299216	1.017092
1.610000	1.970888	1.379640	1.309304	1.000367
1.620000	1.984611	1.364784	1.319220	0.982525
1.630000	1.998183	1.349665	1.328951	0.963669
1.640000	2.011603	1.334275	1.338490	0.943911
1.650000	2.024868	1.318614	1.347827	0.923372
1.660000	2.037974	1.302689	1.356955	0.902176
1.670000	2.050921	1.286510	1.365869	0.880457
1.680000	2.063704	1.270091	1.374563	0.858350
1.690000	2.076322	1.253452	1.383035	0.835994
1.700000	2.088772	1.236610	1.391282	0.813527
1.710000	2.101053	1.219582	1.399305	0.791088
1.720000	2.113163	1.202380	1.407105	0.768813
1.730000	2.125100	1.185016	1.414683	0.746833
1.740000	2.136863	1.167496	1.422043	0.725275
1.750000	2.148450	1.149818	1.429190	0.704258
1.760000	2.159859	1.131979	1.436130	0.683895
1.770000	2.171089	1.113972	1.442870	0.664285
1.780000	2.182138	1.095789	1.449419	0.645522
1.790000	2.193004	1.077421	1.455784	0.627682
1.800000	2.203685	1.058857	1.461976	0.610832
1.810000	2.214180	1.040094	1.468004	0.595022
1.820000	2.224487	1.021127	1.473880	0.580292
1.830000	2.234602	1.001956	1.479613	0.566663
1.840000	2.244525	0.982585	1.485217	0.554141
1.850000	2.254253	0.963017	1.490700	0.542721
1.860000	2.263785	0.943255	1.496075	0.532379
1.870000	2.273118	0.923302	1.501351	0.523078
1.880000	2.282250	0.903161	1.506539	0.514766
1.890000	2.291180	0.882827	1.511649	0.507380
1.900000	2.299906	0.862297	1.516690	0.500843
1.910000	2.308426	0.841566	1.521669	0.495067
1.920000	2.316737	0.820625	1.526593	0.489951
1.930000	2.324837	0.799467	1.531470	0.485389
1.940000	2.332725	0.778085	1.536303	0.481263
1.950000	2.340398	0.756475	1.541096	0.477451
1.960000	2.347854	0.734634	1.545852	0.473825
1.970000	2.355090	0.712567	1.550573	0.470253
1.980000	2.362105	0.690283	1.555257	0.466601
1.990000	2.368895	0.667799	1.559904	0.462738
2.000000	2.375460	0.645135	1.564511	0.458529
2.010000	2.381797	0.622310	1.569073	0.453847
2.020000	2.387906	0.599346	1.573586	0.448567
2.030000	2.393784	0.576266	1.578042	0.442574
2.040000	2.399431	0.553090	1.582434	0.435758
2.050000	2.404845	0.529833	1.586754	0.428020
2.060000	2.410027	0.506505	1.590991	0.419273
2.070000	2.414975	0.483112	1.595136	0.409441
2.080000	2.419689	0.459654	1.599176	0.398460
2.090000	2.424168	0.436122	1.603101	0.386281
2.100000	2.428411	0.412510	1.606898	0.372870
2.110000	2.432418	0.388807	1.610554	0.358206
2.120000	2.436187	0.365003	1.614058	0.342282
2.130000	2.439718	0.341092	1.617396	0.325106
2.140000	2.443009	0.317071	1.620556	0.306703
2.150000	2.446059	0.292938	1.623526	0.287106
2.160000	2.448867	0.268698	1.626294	0.266368
2.170000	2.451432	0.244360	1.628850	0.244550
2.180000	2.453754	0.219938	1.631182	0.221728
2.190000	2.455831	0.195445	1.633281	0.197987
2.200000	2.457663	0.170898	1.635139	0.173424
2.210000	2.459249	0.146317	1.636747	0.148145
2.220000	2.460589	0.121712	1.638100	0.122263
2.230000	2.461683	0.097098	1.639191	0.095898
2.240000	2.462531	0.072483	1.640017	0.069176
2.250000	2.463133	0.047872	1.640574	0.042227
2.260000	2.463488	0.023266	1.640861	0.015182
2.270000	2.463598	-0.001334	1.640877	-0.011827
2.280000	2.463462	-0.025931	1.640625	-0.038667
2.290000	2.463079	-0.050531	1.640105	-0.065211
2.300000	2.462451	-0.075137	1.639322	-0.091333
2.310000	2.461577	-0.099753	1.638280	-0.116915
2.320000	2.460456	-0.124384	1.636986	-0.141844
2.330000	2.459089	-0.149035	1.635446	-0.166018
2.340000	2.457475	-0.173707	1.633668	-0.189342
2.350000	2.455615	-0.198402	1.631662	-0.211735
2.360000	2.453507	-0.223125	1.629437	-0.233124
2.370000	2.451152	-0.247879	1.627003	-0.253452
2.380000	2.448549	-0.272669	1.624372	-0.272675
2.390000	2.445699	-0.297498	1.621553	-0.290760
2.400000	2.442599	-0.322367	1.618560	-0.307692
2.410000	2.439251	-0.347279	1.615403	-0.323469
2.420000	2.435654	-0.372232	1.612095	-0.338101
2.430000	2.431806	-0.397222	1.608645	-0.351616
2.440000	2.427709	-0.422234	1.605066	-0.364053
2.450000	2.423362	-0.447246	1.601367	-0.375466
2.460000	2.418764	-0.472237	1.597560	-0.385920
2.470000	2.413917	-0.497176	1.593652	-0.395490
2.480000	2.408821	-0.522015	1.589653	-0.404262
2.490000	2.403477	-0.546710	1.585569	-0.412332
2.500000	2.397887	-0.571215	1.581408	-0.419800
2.510000	2.392054	-0.595482	1.577175	-0.426773
2.520000	2.385979	-0.619471	1.572874	-0.433361
2.530000	2.379665	-0.643147	1.568509	-0.439677
2.540000	2.373117	-0.666479	1.564081	-0.445831
2.550000	2.366337	-0.689454	1.559592	-0.451935
2.560000	2.359329	-0.712068	1.555042	-0.458098
2.570000	2.352097	-0.734338	1.550430	-0.464423
2.580000	2.344643	-0.756290	1.545753	-0.471009
2.590000	2.336972	-0.777951	1.541008	-0.477950
2.600000	2.329085	-0.799363	1.536192	-0.485331
2.610000	2.320985	-0.820570	1.531300	-0.493232
2.620000	2.312674	-0.841623	1.526326	-0.501722
2.630000	2.304153	-0.862558	1.521263	-0.510864
2.640000	2.295423	-0.883405	1.516106	-0.520712
2.650000	2.286485	-0.904182	1.510847	-0.531307
2.660000	2.277340	-0.924893	1.505477	-0.542685
2.670000	2.267988	-0.945532	1.499990	-0.554868
2.680000	2.258430	-0.966081	1.494377	-0.567871
2.690000	2.248667	-0.986515	1.488630	-0.581694
2.700000	2.238700	-1.006803	1.482741	-0.596330
2.710000	2.228531	-1.026908	1.476701	-0.611759
2.720000	2.218162	-1.046797	1.470503	-0.627950
2.730000	2.207596	-1.066443	1.464139	-0.644862
2.740000	2.196834	-1.085824	1.457603	-0.662441
2.750000	2.185880	-1.104928	1.450889	-0.680626
2.760000	2.174737	-1.123753	1.443989	-0.699344
2.770000	2.163406	-1.142303	1.436900	-0.718517
2.780000	2.151892	-1.160589	1.429617	-0.738056
2.790000	2.140195	-1.178628	1.422138	-0.757868
2.800000	2.128320	-1.196444	1.414460	-0.777854
2.810000	2.116267	-1.214059	1.406581	-0.797913
2.820000	2.104039	-1.231488	1.398501	-0.817940
2.830000	2.091638	-1.248745	1.390222	-0.837832
2.840000	2.079065	-1.265836	1.381746	-0.857485
2.850000	2.066322	-1.282761	1.373074	-0.876796
2.860000	2.053410	-1.299513	1.364211	-0.895667
2.870000	2.040332	-1.316082	1.355162	-0.914005
2.880000	2.027089	-1.332450	1.345933	-0.931721
2.890000	2.013684	-1.348594	1.336530	-0.948731
2.900000	2.000118	-1.364494	1.326961	-0.964961
2.910000	1.986395	-1.380131	1.317234	-0.980343
2.920000	1.972516	-1.395487	1.307357	-0.994817
2.930000	1.958486	-1.410545	1.297341	-1.008333
2.940000	1.944307	-1.425293	1.287194	-1.020849
2.950000	1.929981	-1.439725	1.276927	-1.032336
2.960000	1.915513	-1.453834	1.266551	-1.042772
2.970000	1.900906	-1.467619	1.256075	-1.052146
2.980000	1.886162	-1.481077	1.245511	-1.060457
2.990000	1.871285	-1.494209	1.234870	-1.067716
3.000000	1.856279	-1.507018	1.224160	-1.073943
3.010000	1.841146	-1.519505	1.213394	-1.079166
3.020000	1.825890	-1.531667	1.202580	-1.083426
3.030000	1.810514	-1.543510	1.191729	-1.086770
3.040000	1.795021	-1.555039	1.180848	-1.089256
3.050000	1.779414	-1.566262	1.169946	-1.090947
3.060000	1.763696	-1.577186	1.159031	-1.091915
3.070000	1.747871	-1.587824	1.148110	-1.092238
3.080000	1.731941	-1.598190	1.137188	-1.091998
3.090000	1.715908	-1.608302	1.126272	-1.091282
3.100000	1.699776	-1.618177	1.115364	-1.090180
3.110000	1.683545	-1.627833	1.104469	-1.088786
3.120000	1.667220	-1.637284	1.093589	-1.087195
3.130000	1.650800	-1.646540	1.082725	-1.085500
3.140000	1.634289	-1.655605	1.071879	-1.083795
3.150000	1.617689	-1.664474	1.061049	-1.082174
3.160000	1.601001	-1.673139	1.050235	-1.080726
3.170000	1.584227	-1.681582	1.039434	-1.079537
3.180000	1.567370	-1.689772	1.028643	-1.078685
3.190000	1.550432	-1.697679	1.017859	-1.078243
3.200000	1.533417	-1.705272	1.007077	-1.078279
3.210000	1.516328	-1.712515	0.996291	-1.078850
3.220000	1.499168	-1.719375	0.985498	-1.080002
3.230000	1.481942	-1.725827	0.974689	-1.081772
3.240000	1.464653	-1.731855	0.963860	-1.084187
3.250000	1.447306	-1.737451	0.953003	-1.087262
3.260000	1.429906	-1.742618	0.942113	-1.090999
3.270000	1.412455	-1.747368	0.931181	-1.095391
3.280000	1.394960	-1.751724	0.920203	-1.100417
3.290000	1.377422	-1.755717	0.909171	-1.106049
3.300000	1.359846	-1.759378	0.898080	-1.112247
3.310000	1.342235	-1.762744	0.886924	-1.118960
3.320000	1.324592	-1.765850	0.875699	-1.126131
3.330000	1.306919	-1.768723	0.864400	-1.133696
3.340000	1.289219	-1.771381	0.853024	-1.141582
3.350000	1.271492	-1.773835	0.841568	-1.149714
3.360000	1.253743	-1.776084	0.830029	-1.158012
3.370000	1.235971	-1.778120	0.818407	-1.166391
3.380000	1.218181	-1.779923	0.806702	-1.174763
3.390000	1.200374	-1.781470	0.794912	-1.183043
3.400000	1.182552	-1.782733	0.783041	-1.191140
3.410000	1.164720	-1.783684	0.771090	-1.198966
3.420000	1.146880	-1.784297	0.759063	-1.206436
3.430000	1.129035	-1.784547	0.746963	-1.213462
3.440000	1.111190	-1.784414	0.734796	-1.219963
3.450000	1.093348	-1.783890	0.722566	-1.225858
3.460000	1.075514	-1.782972	0.710281	-1.231076
3.470000	1.057690	-1.781671	0.697947	-1.235545
3.480000	1.039882	-1.780004	0.685572	-1.239203
3.490000	1.022091	-1.777991	0.673166	-1.241995
3.500000	1.004323	-1.775659	0.660736	-1.243874
3.510000	0.986579	-1.773038	0.648291	-1.244801
3.520000	0.968863	-1.770158	0.635843	-1.244747
3.530000	0.951177	-1.767048	0.623400	-1.243693
3.540000	0.933523	-1.763741	0.610972	-1.241630
3.550000	0.915902	-1.760260	0.598570	-1.238562
3.560000	0.898318	-1.756617	0.586204	-1.234500
3.570000	0.880771	-1.752824	0.573884	-1.229469
3.580000	0.863262	-1.748880	0.561618	-1.223502
3.590000	0.845794	-1.744782	0.549417	-1.216645
3.600000	0.828367	-1.740517	0.537288	-1.208952
3.610000	0.810984	-1.736065	0.525240	-1.200484
3.620000	0.793646	-1.731402	0.513281	-1.191310
3.630000	0.776357	-1.726499	0.501416	-1.181508
3.640000	0.759117	-1.721323	0.489652	-1.171159
3.650000	0.741931	-1.715840	0.477994	-1.160349
3.660000	0.724802	-1.710013	0.466447	-1.149166
3.670000	0.707732	-1.703805	0.455012	-1.137699
3.680000	0.690727	-1.697181	0.443693	-1.126039
3.690000	0.673790	-1.690110	0.432492	-1.114272
3.700000	0.656926	-1.682568	0.421408	-1.102485
3.710000	0.640140	-1.674539	0.410442	-1.090760
3.720000	0.623437	-1.666014	0.399592	-1.079172
3.730000	0.606822	-1.656989	0.388858	-1.067791
3.740000	0.590299	-1.647476	0.378236	-1.056682
3.750000	0.573874	-1.637490	0.367723	-1.045902
3.760000	0.557551	-1.627054	0.357316	-1.035498
3.770000	0.541334	-1.616203	0.347012	-1.025511
3.780000	0.525228	-1.604974	0.336805	-1.015972
3.790000	0.509236	-1.593403	0.326691	-1.006904
3.800000	0.493361	-1.581529	0.316665	-0.998324
3.810000	0.477606	-1.569388	0.306722	-0.990236
3.820000	0.461974	-1.557014	0.296859	-0.982640
3.830000	0.446466	-1.544432	0.287068	-0.975526
3.840000	0.431086	-1.531663	0.277346	-0.968879
3.850000	0.415834	-1.518720	0.267689	-0.962673
3.860000	0.400712	-1.505612	0.258092	-0.956880
3.870000	0.385722	-1.492345	0.248550	-0.951463
3.880000	0.370866	-1.478918	0.239061	-0.946379
3.890000	0.356144	-1.465331	0.229622	-0.941581
3.900000	0.341559	-1.451581	0.220229	-0.937018
3.910000	0.327113	-1.437662	0.210881	-0.932634
3.920000	0.312807	-1.423570	0.201576	-0.928370
3.930000	0.298642	-1.409305	0.192313	-0.924164
3.940000	0.284621	-1.394867	0.183093	-0.919952
3.950000	0.270746	-1.380255	0.173914	-0.915671
3.960000	0.257017	-1.365466	0.164780	-0.911255
3.970000	0.243437	-1.350497	0.155690	-0.906641
3.980000	0.230007	-1.335341	0.146648	-0.901764
3.990000	0.216731	-1.319993	0.137656	-0.896565
4.000000	0.203608	-1.304444	0.128718	-0.890983
4.010000	0.190642	-1.288687	0.119837	-0.884965
4.020000	0.177835	-1.272707	0.111020	-0.878459
4.030000	0.165189	-1.256492	0.102270	-0.871417
4.040000	0.152706	-1.240031	0.093593	-0.863797
4.050000	0.140389	-1.223314	0.084996	-0.855562
4.060000	0.128241	-1.206335	0.076484	-0.846680
4.070000	0.116263	-1.189099	0.068065	-0.837127
4.080000	0.104460	-1.171613	0.059744	-0.826881
4.090000	0.092832	-1.153892	0.051529	-0.815930
4.100000	0.081383	-1.135959	0.043428	-0.804268
4.110000	0.070113	-1.117842	0.035446	-0.791896
4.120000	0.059026	-1.099570	0.027592	-0.778822
4.130000	0.048122	-1.081175	0.019872	-0.765061
4.140000	0.037403	-1.062693	0.012293	-0.750636
4.150000	0.026869	-1.044155	0.004862	-0.735578
4.160000	0.016520	-1.025582	-0.002416	-0.719924
4.170000	0.006357	-1.006991	-0.009535	-0.703718
4.180000	-0.003620	-0.988394	-0.016489	-0.687011
4.190000	-0.013411	-0.969791	-0.023274	-0.669859
4.200000	-0.023015	-0.951178	-0.029885	-0.652323
4.210000	-0.032434	-0.932542	-0.036319	-0.634471
4.220000	-0.041666	-0.913863	-0.042573	-0.616370
4.230000	-0.050711	-0.895121	-0.048646	-0.598093
4.240000	-0.059568	-0.876294	-0.054535	-0.579712
4.250000	-0.068237	-0.857363	-0.060240	-0.561301
4.260000	-0.076715	-0.838304	-0.065761	-0.542931
4.270000	-0.085002	-0.819100	-0.071099	-0.524673
4.280000	-0.093097	-0.799740	-0.076255	-0.506594
4.290000	-0.100997	-0.780213	-0.081232	-0.488759
4.300000	-0.108700	-0.760512	-0.086031	-0.471225
4.310000	-0.116206	-0.740633	-0.090657	-0.454049
4.320000	-0.123512	-0.720576	-0.095114	-0.437276
