Time(s)	xt(m)	vt(m/s)	xb(m)	vb(m/s)
0.000000	0.000000	0.000000	0.000000	0.000000
0.010000	0.000057	0.011440	0.000000	0.000033
0.020000	0.000229	0.022905	0.000001	0.000192
0.030000	0.000515	0.034391	0.000005	0.000566
0.040000	0.000917	0.045894	0.000013	0.001242
0.050000	0.001433	0.057406	0.000031	0.002301
0.060000	0.002065	0.068924	0.000061	0.003821
0.070000	0.002812	0.080443	0.000109	0.005874
0.080000	0.003674	0.091961	0.000180	0.008523
0.090000	0.004651	0.103480	0.000282	0.011827
0.100000	0.005743	0.115000	0.000419	0.015835
0.110000	0.006951	0.126525	0.000601	0.020586
0.120000	0.008274	0.138058	0.000834	0.026112
0.130000	0.009712	0.149605	0.001126	0.032434
0.140000	0.011266	0.161164	0.001485	0.039566
0.150000	0.012935	0.172732	0.001920	0.047508
0.160000	0.014721	0.184303	0.002438	0.056254
0.170000	0.016621	0.195860	0.003047	0.065786
0.180000	0.018638	0.207388	0.003756	0.076078
0.190000	0.020769	0.218863	0.004571	0.087093
0.200000	0.023015	0.230262	0.005500	0.098786
0.210000	0.025374	0.241562	0.006549	0.111103
0.220000	0.027846	0.252740	0.007724	0.123981
0.230000	0.030428	0.263781	0.009030	0.137351
0.240000	0.033121	0.274671	0.010473	0.151136
0.250000	0.035921	0.285410	0.012054	0.165254
0.260000	0.038828	0.296005	0.013778	0.179617
0.270000	0.041841	0.306469	0.015647	0.194133
0.280000	0.044957	0.316828	0.017661	0.208709
0.290000	0.048177	0.327114	0.019821	0.223251
0.300000	0.051500	0.337355	0.022126	0.237663
0.310000	0.054924	0.347597	0.024574	0.251854
0.320000	0.058452	0.357874	0.027162	0.265733
0.330000	0.062082	0.368215	0.029887	0.279216
0.340000	0.065816	0.378653	0.032745	0.292223
0.350000	0.069655	0.389210	0.035730	0.304682
0.360000	0.073601	0.399896	0.038836	0.316529
0.370000	0.077654	0.410718	0.042058	0.327709
0.380000	0.081816	0.421672	0.045388	0.338174
0.390000	0.086088	0.432747	0.048819	0.347889
0.400000	0.090471	0.443926	0.052343	0.356827
0.410000	0.094967	0.455187	0.055953	0.364973
0.420000	0.099575	0.466508	0.059640	0.372321
0.430000	0.104297	0.477861	0.063397	0.378876
0.440000	0.109132	0.489219	0.067215	0.384652
0.450000	0.114081	0.500558	0.071087	0.389672
0.460000	0.119143	0.511845	0.075006	0.393969
0.470000	0.124318	0.523053	0.078964	0.397584
0.480000	0.129604	0.534156	0.082956	0.400564
0.490000	0.135000	0.545123	0.086974	0.402965
0.500000	0.140506	0.555927	0.091013	0.404845
0.510000	0.146118	0.566539	0.095069	0.406271
0.520000	0.151836	0.576926	0.099137	0.407311
0.530000	0.157656	0.587063	0.103214	0.408035
0.540000	0.163576	0.596928	0.107297	0.408517
0.550000	0.169594	0.606502	0.111384	0.408828
0.560000	0.175705	0.615773	0.115473	0.409043
0.570000	0.181908	0.624740	0.119565	0.409230
0.580000	0.188199	0.633408	0.123658	0.409459
0.590000	0.194575	0.641792	0.127754	0.409794
0.600000	0.201034	0.649913	0.131855	0.410298
0.610000	0.207573	0.657811	0.135961	0.411028
0.620000	0.214190	0.665522	0.140076	0.412035
0.630000	0.220883	0.673084	0.144203	0.413368
0.640000	0.227651	0.680535	0.148345	0.415069
0.650000	0.234493	0.687907	0.152506	0.417175
0.660000	0.241409	0.695231	0.156690	0.419717
0.670000	0.248398	0.702527	0.160901	0.422721
0.680000	0.255459	0.709804	0.165146	0.426207
0.690000	0.262594	0.717063	0.169427	0.430189
0.700000	0.269800	0.724288	0.173751	0.434673
0.710000	0.277079	0.731459	0.178122	0.439661
0.720000	0.284429	0.738551	0.182546	0.445147
0.730000	0.291850	0.745534	0.187027	0.451119
0.740000	0.299340	0.752374	0.191570	0.457557
0.750000	0.306897	0.759047	0.196179	0.464436
0.760000	0.314520	0.765529	0.200860	0.471723
0.770000	0.322207	0.771807	0.205615	0.479379
0.780000	0.329955	0.777875	0.210449	0.487359
0.790000	0.337764	0.783736	0.215363	0.495612
0.800000	0.345629	0.789403	0.220362	0.504083
0.810000	0.353551	0.794890	0.225445	0.512713
0.820000	0.361527	0.800214	0.230616	0.521441
0.830000	0.369555	0.805393	0.235874	0.530202
0.840000	0.377634	0.810439	0.241220	0.538929
0.850000	0.385763	0.815360	0.246653	0.547558
0.860000	0.393941	0.820159	0.252171	0.556023
0.870000	0.402166	0.824829	0.257772	0.564260
0.880000	0.410437	0.829357	0.263455	0.572206
0.890000	0.418753	0.833725	0.269215	0.579802
0.900000	0.427111	0.837916	0.275050	0.586991
0.910000	0.435510	0.841909	0.280954	0.593722
0.920000	0.443948	0.845686	0.286922	0.599945
0.930000	0.452423	0.849236	0.292951	0.605616
0.940000	0.460932	0.852555	0.299033	0.610696
0.950000	0.469473	0.855645	0.305163	0.615152
0.960000	0.478044	0.858516	0.311334	0.618957
0.970000	0.486643	0.861185	0.317539	0.622088
0.980000	0.495268	0.863675	0.323773	0.624532
0.990000	0.503916	0.866009	0.330028	0.626282
1.000000	0.512587	0.868213	0.336296	0.627336
1.010000	0.521280	0.870307	0.342572	0.627702
1.020000	0.529993	0.872307	0.348848	0.627396
1.030000	0.538726	0.874223	0.355118	0.626438
1.040000	0.547477	0.876058	0.361375	0.624860
1.050000	0.556247	0.877806	0.367613	0.622695
1.060000	0.565033	0.879458	0.373827	0.619988
1.070000	0.573836	0.881004	0.380011	0.616785
1.080000	0.582653	0.882427	0.386161	0.613139
1.090000	0.591484	0.883715	0.392273	0.609109
1.100000	0.600327	0.884859	0.398342	0.604754
1.110000	0.609180	0.885856	0.404367	0.600136
1.120000	0.618043	0.886710	0.410344	0.595321
1.130000	0.626914	0.887429	0.416273	0.590373
1.140000	0.635791	0.888027	0.422152	0.585360
1.150000	0.644674	0.888523	0.427980	0.580346
1.160000	0.653562	0.888941	0.433759	0.575396
1.170000	0.662453	0.889300	0.439488	0.570573
1.180000	0.671348	0.889614	0.445171	0.565937
1.190000	0.680245	0.889890	0.450808	0.561547
1.200000	0.689145	0.890125	0.456403	0.557457
1.210000	0.698047	0.890304	0.461958	0.553716
1.220000	0.706951	0.890409	0.467478	0.550370
1.230000	0.715855	0.890408	0.472967	0.547459
1.240000	0.724759	0.890256	0.478429	0.545016
1.250000	0.733660	0.889912	0.483869	0.543065
1.260000	0.742556	0.889336	0.489292	0.541627
1.270000	0.751445	0.888489	0.494703	0.540710
1.280000	0.760325	0.887338	0.500108	0.540316
1.290000	0.769191	0.885861	0.505511	0.540437
1.300000	0.778041	0.884050	0.510918	0.541058
1.310000	0.786871	0.881908	0.516334	0.542152
1.320000	0.795678	0.879443	0.521763	0.543688
1.330000	0.804459	0.876677	0.527209	0.545622
1.340000	0.813211	0.873636	0.532677	0.547908
1.350000	0.821931	0.870344	0.538168	0.550492
1.360000	0.830617	0.866828	0.543687	0.553313
1.370000	0.839267	0.863111	0.549235	0.556309
1.380000	0.847878	0.859211	0.554814	0.559411
1.390000	0.856450	0.855139	0.560424	0.562550
1.400000	0.864981	0.850899	0.566065	0.565654
1.410000	0.873468	0.846486	0.571736	0.568653
1.420000	0.881910	0.841891	0.577437	0.571474
1.430000	0.890305	0.837100	0.583165	0.574046
1.440000	0.898651	0.832100	0.588917	0.576301
1.450000	0.906946	0.826879	0.594690	0.578172
1.460000	0.915188	0.821427	0.600479	0.579595
1.470000	0.923374	0.815740	0.606280	0.580512
1.480000	0.931502	0.809818	0.612087	0.580866
1.490000	0.939570	0.803669	0.617895	0.580608
1.500000	0.947575	0.797305	0.623697	0.579694
1.510000	0.955515	0.790744	0.629487	0.578087
1.520000	0.963389	0.784002	0.635257	0.575755
1.530000	0.971194	0.777098	0.640999	0.572676
1.540000	0.978930	0.770051	0.646708	0.568835
1.550000	0.986595	0.762875	0.652374	0.564225
1.560000	0.994187	0.755581	0.657990	0.558847
1.570000	1.001706	0.748173	0.663548	0.552712
1.580000	1.009151	0.740653	0.669041	0.545837
1.590000	1.016519	0.733017	0.674462	0.538250
1.600000	1.023810	0.725259	0.679804	0.529982
1.610000	1.031024	0.717374	0.685060	0.521076
1.620000	1.038157	0.709352	0.690224	0.511578
1.630000	1.045210	0.701188	0.695290	0.501543
1.640000	1.052181	0.692878	0.700253	0.491028
1.650000	1.059067	0.684423	0.705109	0.480096
1.660000	1.065869	0.675827	0.709854	0.468814
1.670000	1.072583	0.667095	0.714484	0.457251
1.680000	1.079210	0.658237	0.718998	0.445479
1.690000	1.085748	0.649266	0.723393	0.433570
1.700000	1.092195	0.640192	0.727669	0.421598
1.710000	1.098551	0.631025	0.731825	0.409635
1.720000	1.104815	0.621775	0.735862	0.397753
1.730000	1.110987	0.612447	0.739781	0.386022
1.740000	1.117064	0.603045	0.743583	0.374510
1.750000	1.123047	0.593569	0.747272	0.363278
1.760000	1.128935	0.584018	0.750850	0.352388
1.770000	1.134727	0.574387	0.754321	0.341893
1.780000	1.140423	0.564671	0.757689	0.331842
1.790000	1.146020	0.554864	0.760959	0.322277
1.800000	1.151520	0.544961	0.764137	0.313235
1.810000	1.156919	0.534957	0.767226	0.304742
1.820000	1.162218	0.524852	0.770233	0.296820
1.830000	1.167416	0.514645	0.773164	0.289482
1.840000	1.172511	0.504336	0.776025	0.282733
1.850000	1.177502	0.493928	0.778821	0.276570
1.860000	1.182389	0.483423	0.781558	0.270981
1.870000	1.187171	0.472821	0.784242	0.265949
1.880000	1.191845	0.462124	0.786879	0.261446
1.890000	1.196413	0.451332	0.789473	0.257441
1.900000	1.200872	0.440438	0.792029	0.253893
1.910000	1.205221	0.429439	0.794552	0.250756
1.920000	1.209460	0.418330	0.797046	0.247979
1.930000	1.213587	0.407104	0.799513	0.245505
1.940000	1.217602	0.395757	0.801957	0.243272
1.950000	1.221502	0.384285	0.804379	0.241217
1.960000	1.225287	0.372686	0.806781	0.239270
1.970000	1.228955	0.360964	0.809164	0.237364
1.980000	1.232506	0.349123	0.811528	0.235427
1.990000	1.235937	0.337172	0.813873	0.233387
2.000000	1.239249	0.325120	0.816196	0.231175
2.010000	1.242440	0.312980	0.818495	0.228721
2.020000	1.245508	0.300768	0.820769	0.225960
2.030000	1.248455	0.288494	0.823013	0.222828
2.040000	1.251278	0.276169	0.825224	0.219268
2.050000	1.253978	0.263803	0.827397	0.215225
2.060000	1.256554	0.251401	0.829527	0.210652
2.070000	1.259006	0.238966	0.831608	0.205508
2.080000	1.261333	0.226496	0.833635	0.199759
2.090000	1.263536	0.213989	0.835601	0.193376
2.100000	1.265613	0.201439	0.837500	0.186341
2.110000	1.267564	0.188840	0.839326	0.178640
2.120000	1.269389	0.176183	0.841071	0.170271
2.130000	1.271088	0.163465	0.842729	0.161235
2.140000	1.272659	0.150684	0.844293	0.151544
2.150000	1.274101	0.137839	0.845758	0.141216
2.160000	1.275415	0.124933	0.847116	0.130276
2.170000	1.276600	0.111973	0.848361	0.118757
2.180000	1.277654	0.098965	0.849489	0.106696
2.190000	1.278579	0.085918	0.850494	0.094139
2.200000	1.279373	0.072844	0.851370	0.081137
2.210000	1.280036	0.059750	0.852115	0.067744
2.220000	1.280568	0.046647	0.852724	0.054020
2.230000	1.280969	0.033543	0.853195	0.040028
2.240000	1.281239	0.020442	0.853524	0.025836
2.250000	1.281377	0.007348	0.853711	0.011510
2.260000	1.281386	-0.005738	0.853754	-0.002877
2.270000	1.281263	-0.018816	0.853653	-0.017257
2.280000	1.281009	-0.031889	0.853409	-0.031559
2.290000	1.280625	-0.044957	0.853023	-0.045713
2.300000	1.280110	-0.058025	0.852496	-0.059653
2.310000	1.279464	-0.071095	0.851831	-0.073316
2.320000	1.278688	-0.084170	0.851030	-0.086639
2.330000	1.277781	-0.097250	0.850099	-0.099569
2.340000	1.276743	-0.110339	0.849041	-0.112052
2.350000	1.275574	-0.123438	0.847860	-0.124045
2.360000	1.274274	-0.136551	0.846561	-0.135508
2.370000	1.272843	-0.149678	0.845151	-0.146410
2.380000	1.271281	-0.162822	0.843635	-0.156724
2.390000	1.269587	-0.175987	0.842019	-0.166432
2.400000	1.267761	-0.189173	0.840309	-0.175525
2.410000	1.265803	-0.202383	0.838510	-0.184001
2.420000	1.263713	-0.215615	0.836631	-0.191863
2.430000	1.261491	-0.228866	0.834675	-0.199125
2.440000	1.259136	-0.242130	0.832650	-0.205806
2.450000	1.256648	-0.255395	0.830561	-0.211935
2.460000	1.254028	-0.268646	0.828413	-0.217544
2.470000	1.251275	-0.281865	0.826212	-0.222673
2.480000	1.248391	-0.295026	0.823961	-0.227367
2.490000	1.245375	-0.308102	0.821666	-0.231676
2.500000	1.242229	-0.321065	0.819329	-0.235653
2.510000	1.238954	-0.333888	0.816953	-0.239353
2.520000	1.235552	-0.346546	0.814542	-0.242835
2.530000	1.232024	-0.359018	0.812097	-0.246159
2.540000	1.228372	-0.371288	0.809619	-0.249382
2.550000	1.224599	-0.383347	0.807110	-0.252563
2.560000	1.220706	-0.395194	0.804568	-0.255760
2.570000	1.216696	-0.406837	0.801994	-0.259027
2.580000	1.212570	-0.418293	0.799387	-0.262417
2.590000	1.208330	-0.429582	0.796745	-0.265979
2.600000	1.203979	-0.440729	0.794067	-0.269758
2.610000	1.199516	-0.451763	0.791349	-0.273797
2.620000	1.194944	-0.462711	0.788590	-0.278132
2.630000	1.190262	-0.473601	0.785786	-0.282797
2.640000	1.185472	-0.484451	0.782933	-0.287820
2.650000	1.180573	-0.495270	0.780028	-0.293227
2.660000	1.175567	-0.506062	0.777067	-0.299035
2.670000	1.170452	-0.516824	0.774046	-0.305258
2.680000	1.165230	-0.527546	0.770960	-0.311906
2.690000	1.159901	-0.538212	0.767806	-0.318980
2.700000	1.154466	-0.548802	0.764579	-0.326478
2.710000	1.148926	-0.559294	0.761275	-0.334392
2.720000	1.143281	-0.569669	0.757890	-0.342707
2.730000	1.137533	-0.579912	0.754420	-0.351403
2.740000	1.131683	-0.590009	0.750861	-0.360453
2.750000	1.125733	-0.599951	0.747210	-0.369827
2.760000	1.119685	-0.609735	0.743463	-0.379489
2.770000	1.113539	-0.619365	0.739619	-0.389398
2.780000	1.107298	-0.628850	0.735675	-0.399507
2.790000	1.100962	-0.638200	0.731629	-0.409771
2.800000	1.094534	-0.647428	0.727479	-0.420136
2.810000	1.088014	-0.656547	0.723226	-0.430551
2.820000	1.081403	-0.665566	0.718868	-0.440961
2.830000	1.074703	-0.674495	0.714407	-0.451311
2.840000	1.067914	-0.683337	0.709842	-0.461548
2.850000	1.061037	-0.692092	0.705176	-0.471616
2.860000	1.054072	-0.700757	0.700411	-0.481466
2.870000	1.047022	-0.709323	0.695548	-0.491047
2.880000	1.039886	-0.717779	0.690591	-0.500311
2.890000	1.032667	-0.726113	0.685543	-0.509215
2.900000	1.025364	-0.734314	0.680408	-0.517718
2.910000	1.017981	-0.742367	0.675190	-0.525783
2.920000	1.010518	-0.750262	0.669894	-0.533379
2.930000	1.002976	-0.757989	0.664524	-0.540477
2.940000	0.995358	-0.765542	0.659086	-0.547054
2.950000	0.987666	-0.772916	0.653585	-0.553093
2.960000	0.979901	-0.780108	0.648026	-0.558581
2.970000	0.972064	-0.787117	0.642415	-0.563509
2.980000	0.964159	-0.793942	0.636758	-0.567876
2.990000	0.956186	-0.800584	0.631059	-0.571686
3.000000	0.948148	-0.807045	0.625326	-0.574946
3.010000	0.940046	-0.813325	0.619562	-0.577670
3.020000	0.931882	-0.819426	0.613774	-0.579877
3.030000	0.923658	-0.825349	0.607966	-0.581590
3.040000	0.915376	-0.831099	0.602144	-0.582837
3.050000	0.907037	-0.836679	0.596311	-0.583651
3.060000	0.898643	-0.842096	0.590472	-0.584067
3.070000	0.890195	-0.847357	0.584631	-0.584124
3.080000	0.881696	-0.852473	0.578791	-0.583864
3.090000	0.873146	-0.857454	0.572954	-0.583334
3.100000	0.864547	-0.862313	0.567125	-0.582579
3.110000	0.855900	-0.867061	0.561303	-0.581647
3.120000	0.847206	-0.871706	0.555492	-0.580589
3.130000	0.838466	-0.876256	0.549692	-0.579455
3.140000	0.829682	-0.880713	0.543903	-0.578293
3.150000	0.820852	-0.885076	0.538126	-0.577155
3.160000	0.811980	-0.889337	0.532360	-0.576089
3.170000	0.803066	-0.893487	0.526604	-0.575139
3.180000	0.794111	-0.897509	0.520857	-0.574350
3.190000	0.785116	-0.901387	0.515116	-0.573764
3.200000	0.776084	-0.905099	0.509380	-0.573415
3.210000	0.767015	-0.908622	0.503647	-0.573338
3.220000	0.757912	-0.911938	0.497913	-0.573557
3.230000	0.748777	-0.915031	0.492175	-0.574097
3.240000	0.739612	-0.917892	0.486430	-0.574973
3.250000	0.730420	-0.920516	0.480674	-0.576195
3.260000	0.721203	-0.922905	0.474905	-0.577766
3.270000	0.711963	-0.925067	0.469118	-0.579685
3.280000	0.702702	-0.927016	0.463310	-0.581944
3.290000	0.693423	-0.928770	0.457478	-0.584528
3.300000	0.684127	-0.930350	0.451618	-0.587419
3.310000	0.674816	-0.931776	0.445728	-0.590591
3.320000	0.665492	-0.933069	0.439806	-0.594017
3.330000	0.656155	-0.934246	0.433847	-0.597664
3.340000	0.646808	-0.935319	0.427852	-0.601496
3.350000	0.637449	-0.936293	0.421817	-0.605473
3.360000	0.628082	-0.937169	0.415742	-0.609555
3.370000	0.618706	-0.937940	0.409626	-0.613697
3.380000	0.609324	-0.938594	0.403468	-0.617855
3.390000	0.599935	-0.939117	0.397269	-0.621984
3.400000	0.590542	-0.939492	0.391028	-0.626038
3.410000	0.581146	-0.939700	0.384748	-0.629970
3.420000	0.571748	-0.939724	0.378430	-0.633733
3.430000	0.562352	-0.939551	0.372074	-0.637282
3.440000	0.552958	-0.939169	0.365685	-0.640574
3.450000	0.543569	-0.938571	0.359264	-0.643566
3.460000	0.534187	-0.937757	0.352815	-0.646217
3.470000	0.524815	-0.936731	0.346341	-0.648489
3.480000	0.515453	-0.935504	0.339846	-0.650348
3.490000	0.506105	-0.934087	0.333335	-0.651762
3.500000	0.496772	-0.932500	0.326812	-0.652705
3.510000	0.487456	-0.930760	0.320283	-0.653152
3.520000	0.478157	-0.928886	0.313751	-0.653088
3.530000	0.468878	-0.926896	0.307223	-0.652498
3.540000	0.459620	-0.924809	0.300703	-0.651378
3.550000	0.450383	-0.922636	0.294197	-0.649725
3.560000	0.441167	-0.920389	0.287710	-0.647544
3.570000	0.431975	-0.918074	0.281248	-0.644845
3.580000	0.422806	-0.915692	0.274815	-0.641645
3.590000	0.413661	-0.913240	0.268416	-0.637966
3.600000	0.404542	-0.910709	0.262057	-0.633835
3.610000	0.395448	-0.908089	0.255741	-0.629282
3.620000	0.386380	-0.905364	0.249473	-0.624343
3.630000	0.377341	-0.902520	0.243256	-0.619058
3.640000	0.368330	-0.899537	0.237093	-0.613470
3.650000	0.359350	-0.896391	0.230987	-0.607624
3.660000	0.350403	-0.893060	0.224941	-0.601565
3.670000	0.341490	-0.889521	0.218956	-0.595341
3.680000	0.332613	-0.885756	0.213034	-0.588999
3.690000	0.323776	-0.881744	0.207176	-0.582586
3.700000	0.314979	-0.877471	0.201383	-0.576148
3.710000	0.306227	-0.872928	0.195653	-0.569726
3.720000	0.297522	-0.868109	0.189988	-0.563363
3.730000	0.288866	-0.863012	0.184386	-0.557096
3.740000	0.280262	-0.857643	0.178846	-0.550959
3.750000	0.271714	-0.852010	0.173366	-0.544982
3.760000	0.263223	-0.846132	0.167945	-0.539192
3.770000	0.254792	-0.840028	0.162582	-0.533610
3.780000	0.246423	-0.833720	0.157273	-0.528253
3.790000	0.238118	-0.827231	0.152016	-0.523137
3.800000	0.229879	-0.820585	0.146809	-0.518268
3.810000	0.221707	-0.813804	0.141650	-0.513652
3.820000	0.213603	-0.806908	0.136535	-0.509289
3.830000	0.205569	-0.799913	0.131463	-0.505176
3.840000	0.197605	-0.792831	0.126431	-0.501305
3.850000	0.189713	-0.785671	0.121436	-0.497667
3.860000	0.181892	-0.778437	0.116477	-0.494246
3.870000	0.174144	-0.771132	0.111551	-0.491025
3.880000	0.166470	-0.763756	0.106656	-0.487985
3.890000	0.158869	-0.756307	0.101790	-0.485102
3.900000	0.151344	-0.748783	0.096953	-0.482352
3.910000	0.143894	-0.741181	0.092143	-0.479706
3.920000	0.136521	-0.733498	0.087359	-0.477135
3.930000	0.129224	-0.725732	0.082600	-0.474609
3.940000	0.122006	-0.717884	0.077867	-0.472097
3.950000	0.114867	-0.709950	0.073158	-0.469566
3.960000	0.107807	-0.701931	0.068475	-0.466982
3.970000	0.100829	-0.693824	0.063819	-0.464314
3.980000	0.093931	-0.685625	0.059189	-0.461529
3.990000	0.087116	-0.677329	0.054589	-0.458597
4.000000	0.080385	-0.668932	0.050018	-0.455486
4.010000	0.073738	-0.660426	0.045480	-0.452167
4.020000	0.067177	-0.651803	0.040976	-0.448615
4.030000	0.060702	-0.643056	0.036508	-0.444803
4.040000	0.054316	-0.634175	0.032080	-0.440709
4.050000	0.048019	-0.625157	0.027695	-0.436314
4.060000	0.041814	-0.615998	0.023355	-0.431597
4.070000	0.035700	-0.606698	0.019064	-0.426546
4.080000	0.029680	-0.597263	0.014825	-0.421148
4.090000	0.023755	-0.587702	0.010642	-0.415394
4.100000	0.017926	-0.578028	0.006519	-0.409279
4.110000	0.012195	-0.568257	0.002458	-0.402801
4.120000	0.006561	-0.558410	-0.001536	-0.395963
4.130000	0.001027	-0.548506	-0.005460	-0.388770
4.140000	-0.004409	-0.538566	-0.009310	-0.381231
4.150000	-0.009744	-0.528609	-0.013083	-0.373361
4.160000	-0.014981	-0.518647	-0.016776	-0.365176
4.170000	-0.020117	-0.508692	-0.020386	-0.356698
4.180000	-0.025155	-0.498749	-0.023909	-0.347952
4.190000	-0.030092	-0.488821	-0.027344	-0.338965
4.200000	-0.034931	-0.478902	-0.030688	-0.329769
4.210000	-0.039670	-0.468986	-0.033939	-0.320397
4.220000	-0.044311	-0.459062	-0.037096	-0.310884
4.230000	-0.048852	-0.449117	-0.040156	-0.301267
4.240000	-0.053293	-0.439137	-0.043121	-0.291584
4.250000	-0.057634	-0.429109	-0.045988	-0.281873
4.260000	-0.061875	-0.419020	-0.048758	-0.272172
4.270000	-0.066014	-0.408861	-0.051432	-0.262517
4.280000	-0.070052	-0.398622	-0.054009	-0.252945
4.290000	-0.073987	-0.388298	-0.056491	-0.243489
4.300000	-0.077817	-0.377884	-0.058879	-0.234182
4.310000	-0.081544	-0.367378	-0.061175	-0.225051
4.320000	-0.085165	-0.356780	-0.063381	-0.216123
