Time(s)	xt(m)	vt(m/s)	xb(m)	vb(m/s)
0.000000	0.000000	0.000000	0.000000	0.000000
0.010000	0.000136	0.027238	0.000000	0.000078
0.020000	0.000545	0.054554	0.000003	0.000457
0.030000	0.001227	0.081938	0.000011	0.001348
0.040000	0.002184	0.109377	0.000032	0.002958
0.050000	0.003415	0.136858	0.000073	0.005481
0.060000	0.004921	0.164368	0.000145	0.009104
0.070000	0.006703	0.191900	0.000260	0.013997
0.080000	0.008759	0.219450	0.000430	0.020315
0.090000	0.011092	0.247018	0.000671	0.028194
0.100000	0.013700	0.274616	0.000999	0.037754
0.110000	0.016584	0.302258	0.001432	0.049091
0.120000	0.019745	0.329954	0.001987	0.062280
0.130000	0.023183	0.357713	0.002684	0.077375
0.140000	0.026900	0.385537	0.003541	0.094407
0.150000	0.030894	0.413417	0.004579	0.113382
0.160000	0.035168	0.441332	0.005815	0.134286
0.170000	0.039721	0.469247	0.007271	0.157078
0.180000	0.044553	0.497108	0.008963	0.181698
0.190000	0.049663	0.524853	0.010910	0.208060
0.200000	0.055049	0.552411	0.013130	0.236058
0.210000	0.060710	0.579715	0.015637	0.265566
0.220000	0.066642	0.606702	0.018446	0.296434
0.230000	0.072843	0.633321	0.021569	0.328498
0.240000	0.079308	0.659538	0.025019	0.361575
0.250000	0.086032	0.685349	0.028804	0.395465
0.260000	0.093013	0.710776	0.032930	0.429961
0.270000	0.100247	0.735855	0.037404	0.464842
0.280000	0.107729	0.760659	0.042228	0.499882
0.290000	0.115459	0.785274	0.047401	0.534853
0.300000	0.123435	0.809789	0.052924	0.569527
0.310000	0.131655	0.834327	0.058790	0.603679
0.320000	0.140121	0.858988	0.064995	0.637093
0.330000	0.148835	0.883857	0.071529	0.669565
0.340000	0.157800	0.909026	0.078382	0.700903
0.350000	0.167017	0.934558	0.085543	0.730933
0.360000	0.176492	0.960484	0.092996	0.759502
0.370000	0.186228	0.986822	0.100727	0.786477
0.380000	0.196230	1.013566	0.108720	0.811747
0.390000	0.206501	1.040678	0.116956	0.835228
0.400000	0.217045	1.068111	0.125418	0.856860
0.410000	0.227864	1.095807	0.134087	0.876607
0.420000	0.238961	1.123700	0.142944	0.894460
0.430000	0.250338	1.151712	0.151970	0.910431
0.440000	0.261996	1.179762	0.161147	0.924559
0.450000	0.273933	1.207772	0.170455	0.936903
0.460000	0.286151	1.235660	0.179879	0.947543
0.470000	0.298646	1.263353	0.189401	0.956581
0.480000	0.311417	1.290771	0.199006	0.964131
0.490000	0.324460	1.317830	0.208679	0.970327
0.500000	0.337772	1.344446	0.218408	0.975313
0.510000	0.351347	1.370540	0.228182	0.979245
0.520000	0.365181	1.396027	0.237990	0.982285
0.530000	0.379266	1.420828	0.247825	0.984601
0.540000	0.393595	1.444878	0.257680	0.986363
0.550000	0.408161	1.468130	0.267551	0.987741
0.560000	0.422955	1.490558	0.277434	0.988904
0.570000	0.437969	1.512157	0.287329	0.990014
0.580000	0.453195	1.532947	0.297235	0.991227
0.590000	0.468625	1.552978	0.307154	0.992692
0.600000	0.484252	1.572319	0.317090	0.994548
0.610000	0.500070	1.591061	0.327047	0.996922
0.620000	0.516072	1.609318	0.337031	0.999931
0.630000	0.532255	1.627205	0.347048	1.003680
0.640000	0.548615	1.644830	0.357107	1.008264
0.650000	0.565151	1.662307	0.367216	1.013761
0.660000	0.581861	1.679714	0.377386	1.020242
0.670000	0.598745	1.697109	0.387625	1.027761
0.680000	0.615803	1.714519	0.397944	1.036363
0.690000	0.633036	1.731942	0.408356	1.046077
0.700000	0.650442	1.749346	0.418870	1.056919
0.710000	0.668022	1.766677	0.429498	1.068892
0.720000	0.685775	1.783858	0.440251	1.081985
0.730000	0.703699	1.800789	0.451141	1.096168
0.740000	0.721790	1.817383	0.462178	1.111401
0.750000	0.740045	1.833562	0.473372	1.127624
0.760000	0.758459	1.849265	0.484734	1.144766
0.770000	0.777028	1.864452	0.496271	1.162737
0.780000	0.795747	1.879106	0.507991	1.181436
0.790000	0.814609	1.893239	0.519901	1.200747
0.800000	0.833610	1.906880	0.532007	1.220545
0.810000	0.852745	1.920070	0.544313	1.240695
0.820000	0.872010	1.932858	0.556822	1.261056
0.830000	0.891401	1.945294	0.569535	1.281480
0.840000	0.910915	1.957415	0.582451	1.301817
0.850000	0.930548	1.969243	0.595570	1.321915
0.860000	0.950299	1.980780	0.608888	1.341628
0.870000	0.970163	1.992008	0.622401	1.360807
0.880000	0.990138	2.002890	0.636102	1.379311
0.890000	1.010219	2.013374	0.649985	1.397002
0.900000	1.030404	2.023405	0.664039	1.413753
0.910000	1.050686	2.032920	0.678256	1.429443
0.920000	1.071060	2.041866	0.692624	1.443960
0.930000	1.091521	2.050216	0.707131	1.457200
0.940000	1.112062	2.057953	0.721764	1.469075
0.950000	1.132678	2.065087	0.736508	1.479506
0.960000	1.153362	2.071651	0.751349	1.488427
0.970000	1.174109	2.077696	0.766271	1.495786
0.980000	1.194915	2.083279	0.781259	1.501548
0.990000	1.215774	2.088465	0.796297	1.505692
1.000000	1.236683	2.093329	0.811368	1.508216
1.010000	1.257639	2.097929	0.826456	1.509132
1.020000	1.278641	2.102312	0.841545	1.508472
1.030000	1.299685	2.106509	0.856620	1.506286
1.040000	1.320770	2.110531	0.871666	1.502639
1.050000	1.341895	2.114364	0.886668	1.497614
1.060000	1.363057	2.117981	0.901614	1.491305
1.070000	1.384254	2.121353	0.916490	1.483823
1.080000	1.405483	2.124437	0.931287	1.475290
1.090000	1.426741	2.127197	0.945993	1.465837
1.100000	1.448026	2.129607	0.960601	1.455605
1.110000	1.469332	2.131661	0.975103	1.444738
1.120000	1.490658	2.133370	0.989494	1.433386
1.130000	1.511999	2.134763	1.003770	1.421701
1.140000	1.533352	2.135891	1.017927	1.409837
1.150000	1.554716	2.136810	1.031966	1.397946
1.160000	1.576088	2.137577	1.045887	1.386181
1.170000	1.597467	2.138241	1.059691	1.374687
1.180000	1.618853	2.138850	1.073382	1.363610
1.190000	1.640244	2.139422	1.086965	1.353086
1.200000	1.661641	2.139953	1.100446	1.343246
1.210000	1.683043	2.140416	1.113832	1.334210
1.220000	1.704449	2.140743	1.127133	1.326086
1.230000	1.725857	2.140834	1.140358	1.318974
1.240000	1.747264	2.140580	1.153516	1.312954
1.250000	1.768667	2.139865	1.166620	1.308091
1.260000	1.790060	2.138568	1.179682	1.304432
1.270000	1.811436	2.136570	1.192713	1.302004
1.280000	1.832788	2.133785	1.205726	1.300814
1.290000	1.854109	2.130157	1.218734	1.300846
1.300000	1.875389	2.125656	1.231747	1.302061
1.310000	1.896619	2.120276	1.244778	1.304404
1.320000	1.917791	2.114048	1.257839	1.307795
1.330000	1.938897	2.107036	1.270938	1.312137
1.340000	1.959930	2.099314	1.284084	1.317314
1.350000	1.980882	2.090956	1.297286	1.323196
1.360000	2.001747	2.082037	1.310550	1.329642
1.370000	2.022521	2.072617	1.323880	1.336498
1.380000	2.043198	2.062742	1.337281	1.343602
1.390000	2.063774	2.052443	1.350753	1.350788
1.400000	2.084245	2.041730	1.364296	1.357884
1.410000	2.104607	2.030593	1.377910	1.364717
1.420000	2.124856	2.018998	1.391589	1.371117
1.430000	2.144986	2.006906	1.405330	1.376913
1.440000	2.164992	1.994278	1.419125	1.381940
1.450000	2.184869	1.981080	1.432966	1.386036
1.460000	2.204611	1.967279	1.446842	1.389049
1.470000	2.224213	1.952862	1.460743	1.390837
1.480000	2.243667	1.937830	1.474654	1.391264
1.490000	2.262967	1.922200	1.488563	1.390210
1.500000	2.282109	1.906015	1.502453	1.387566
1.510000	2.301086	1.889317	1.516309	1.383243
1.520000	2.319894	1.872155	1.530112	1.377163
1.530000	2.338528	1.854583	1.543846	1.369270
1.540000	2.356984	1.836656	1.557491	1.359525
1.550000	2.375260	1.818408	1.571030	1.347912
1.560000	2.393351	1.799871	1.584443	1.334432
1.570000	2.411256	1.781060	1.597713	1.319107
1.580000	2.428972	1.761978	1.610820	1.301980
1.590000	2.446495	1.742615	1.623747	1.283114
1.600000	2.463823	1.722955	1.636477	1.262591
1.610000	2.480953	1.702976	1.648993	1.240506
1.620000	2.497881	1.682662	1.661282	1.216974
1.630000	2.514605	1.661994	1.673328	1.192124
1.640000	2.531120	1.640961	1.685120	1.166098
1.650000	2.547423	1.619565	1.696647	1.139047
1.660000	2.563510	1.597818	1.707898	1.111131
1.670000	2.579378	1.575738	1.718867	1.082519
1.680000	2.595024	1.553354	1.729547	1.053383
1.690000	2.610444	1.530701	1.739933	1.023900
1.700000	2.625637	1.507807	1.750024	0.994248
1.710000	2.640600	1.484704	1.759818	0.964604
1.720000	2.655331	1.461419	1.769317	0.935142
1.730000	2.669828	1.437969	1.778522	0.906033
1.740000	2.684089	1.414365	1.787439	0.877442
1.750000	2.698114	1.390607	1.796074	0.849525
1.760000	2.711901	1.366691	1.804433	0.822426
1.770000	2.725448	1.342606	1.812525	0.796282
1.780000	2.738753	1.318336	1.820362	0.771212
1.790000	2.751814	1.293863	1.827953	0.747322
1.800000	2.764629	1.269174	1.835312	0.724702
1.810000	2.777196	1.244260	1.842452	0.703422
1.820000	2.789514	1.219113	1.849386	0.683537
1.830000	2.801578	1.193731	1.856127	0.665081
1.840000	2.813387	1.168118	1.862692	0.648067
1.850000	2.824940	1.142276	1.869094	0.632494
1.860000	2.836232	1.116212	1.875347	0.618336
1.870000	2.847263	1.089930	1.881465	0.605551
1.880000	2.858030	1.063426	1.887462	0.594077
1.890000	2.868531	1.036696	1.893350	0.583839
1.900000	2.878763	1.009731	1.899142	0.574740
1.910000	2.888725	0.982516	1.904849	0.566670
1.920000	2.898413	0.955034	1.910479	0.559505
1.930000	2.907824	0.927264	1.916041	0.553109
1.940000	2.916957	0.899190	1.921543	0.547334
1.950000	2.925807	0.870805	1.926990	0.542022
1.960000	2.934372	0.842102	1.932385	0.537009
1.970000	2.942648	0.813083	1.937730	0.532125
1.980000	2.950633	0.783761	1.943027	0.527196
1.990000	2.958322	0.754158	1.948273	0.522047
2.000000	2.965715	0.724305	1.953467	0.516506
2.010000	2.972808	0.694234	1.958602	0.510401
2.020000	2.979599	0.663978	1.963672	0.503570
2.030000	2.986087	0.633575	1.968670	0.495857
2.040000	2.992270	0.603054	1.973586	0.487116
2.050000	2.998148	0.572438	1.978409	0.477213
2.060000	3.003719	0.541740	1.983126	0.466030
2.070000	3.008982	0.510966	1.987725	0.453463
2.080000	3.013938	0.480112	1.992190	0.439423
2.090000	3.018584	0.449166	1.996508	0.423842
2.100000	3.022921	0.418115	2.000662	0.406667
2.110000	3.026946	0.386939	2.004636	0.387866
2.120000	3.030659	0.355620	2.008414	0.367425
2.130000	3.034058	0.324144	2.011979	0.345348
2.140000	3.037141	0.292502	2.015315	0.321658
2.150000	3.039907	0.260693	2.018407	0.296397
2.160000	3.042355	0.228726	2.021238	0.269623
2.170000	3.044481	0.196617	2.023794	0.241413
2.180000	3.046286	0.164386	2.026062	0.211858
2.190000	3.047769	0.132060	2.028028	0.181064
2.200000	3.048927	0.099669	2.029679	0.149154
2.210000	3.049762	0.067241	2.031007	0.116260
2.220000	3.050272	0.034798	2.032002	0.082527
2.230000	3.050458	0.002364	2.032656	0.048108
2.240000	3.050320	-0.030049	2.032962	0.013166
2.250000	3.049857	-0.062429	2.032918	-0.022131
2.260000	3.049071	-0.094773	2.032519	-0.057613
2.270000	3.047962	-0.127082	2.031765	-0.093104
2.280000	3.046530	-0.159359	2.030657	-0.128433
2.290000	3.044775	-0.191611	2.029198	-0.163428
2.300000	3.042697	-0.223847	2.027391	-0.197924
2.310000	3.040298	-0.256074	2.025242	-0.231760
2.320000	3.037576	-0.288296	2.022758	-0.264787
2.330000	3.034532	-0.320522	2.019949	-0.296862
2.340000	3.031165	-0.352757	2.016824	-0.327859
2.350000	3.027477	-0.385007	2.013396	-0.357663
2.360000	3.023465	-0.417279	2.009675	-0.386173
2.370000	3.019131	-0.449576	2.005677	-0.413308
2.380000	3.014474	-0.481911	2.001414	-0.439000
2.390000	3.009493	-0.514291	1.996902	-0.463202
2.400000	3.004188	-0.546720	1.992155	-0.485885
2.410000	2.998558	-0.579203	1.987189	-0.507038
2.420000	2.992603	-0.611742	1.982019	-0.526671
2.430000	2.986323	-0.644323	1.976661	-0.544810
2.440000	2.979717	-0.676932	1.971128	-0.561503
2.450000	2.972784	-0.709538	1.965435	-0.576812
2.460000	2.965526	-0.742098	1.959596	-0.590816
2.470000	2.957943	-0.774560	1.953623	-0.603611
2.480000	2.950036	-0.806859	1.947528	-0.615305
2.490000	2.941806	-0.838927	1.941320	-0.626017
2.500000	2.933258	-0.870692	1.935010	-0.635877
2.510000	2.924394	-0.902070	1.928605	-0.645019
2.520000	2.915218	-0.932991	1.922112	-0.653586
2.530000	2.905736	-0.963397	1.915535	-0.661719
2.540000	2.895952	-0.993247	1.908878	-0.669564
2.550000	2.885873	-1.022518	1.902144	-0.677262
2.560000	2.875504	-1.051208	1.895333	-0.684951
2.570000	2.864850	-1.079335	1.888445	-0.692767
2.580000	2.853919	-1.106951	1.881477	-0.700835
2.590000	2.842713	-1.134119	1.874427	-0.709275
2.600000	2.831237	-1.160918	1.867290	-0.718200
2.610000	2.819496	-1.187426	1.860061	-0.727711
2.620000	2.807490	-1.213713	1.852733	-0.737901
2.630000	2.795222	-1.239853	1.845300	-0.748852
2.640000	2.782693	-1.265897	1.837753	-0.760638
2.650000	2.769904	-1.291884	1.830084	-0.773318
2.660000	2.756855	-1.317827	1.822284	-0.786942
2.670000	2.743548	-1.343716	1.814342	-0.801547
2.680000	2.729981	-1.369521	1.806250	-0.817160
2.690000	2.716158	-1.395193	1.797996	-0.833790
2.700000	2.702078	-1.420680	1.789571	-0.851436
2.710000	2.687745	-1.445928	1.780964	-0.870084
2.720000	2.673161	-1.470881	1.772166	-0.889702
2.730000	2.658328	-1.495488	1.763167	-0.910247
2.740000	2.643252	-1.519711	1.753958	-0.931660
2.750000	2.627936	-1.543529	1.744531	-0.953870
2.760000	2.612383	-1.566934	1.734878	-0.976792
2.770000	2.596598	-1.589934	1.724993	-1.000332
2.780000	2.580585	-1.612555	1.714870	-1.024384
2.790000	2.564348	-1.634830	1.704504	-1.048832
2.800000	2.547890	-1.656794	1.693892	-1.073554
2.810000	2.531213	-1.678480	1.683032	-1.098423
2.820000	2.514321	-1.699916	1.671924	-1.123311
2.830000	2.497216	-1.721128	1.660566	-1.148085
2.840000	2.479899	-1.742128	1.648963	-1.172612
2.850000	2.462374	-1.762910	1.637115	-1.196764
2.860000	2.444642	-1.783464	1.625029	-1.220413
2.870000	2.426705	-1.803770	1.612709	-1.243439
2.880000	2.408567	-1.823797	1.600163	-1.265726
2.890000	2.390231	-1.843510	1.587398	-1.287164
2.900000	2.371698	-1.862874	1.574423	-1.307652
2.910000	2.352974	-1.881854	1.561248	-1.327102
2.920000	2.334063	-1.900419	1.547884	-1.345429
2.930000	2.314967	-1.918544	1.534343	-1.362563
2.940000	2.295693	-1.936209	1.520637	-1.378444
2.950000	2.276245	-1.953401	1.506779	-1.393025
2.960000	2.256627	-1.970112	1.492781	-1.406269
2.970000	2.236844	-1.986341	1.478658	-1.418153
2.980000	2.216902	-2.002087	1.464423	-1.428665
2.990000	2.196804	-2.017352	1.450089	-1.437808
3.000000	2.176556	-2.032141	1.435671	-1.445598
3.010000	2.156163	-2.046457	1.421182	-1.452061
3.020000	2.135629	-2.060306	1.406634	-1.457237
3.030000	2.114958	-2.073695	1.392041	-1.461178
3.040000	2.094156	-2.086633	1.377414	-1.463946
3.050000	2.073227	-2.099136	1.362766	-1.465614
3.060000	2.052175	-2.111223	1.348105	-1.466266
3.070000	2.031004	-2.122914	1.333443	-1.465992
3.080000	2.009718	-2.134237	1.318788	-1.464892
3.090000	1.988320	-2.145229	1.304148	-1.463070
3.100000	1.966814	-2.155928	1.289529	-1.460640
3.110000	1.945203	-2.166367	1.274937	-1.457718
3.120000	1.923488	-2.176570	1.260376	-1.454424
3.130000	1.901672	-2.186556	1.245849	-1.450879
3.140000	1.879757	-2.196334	1.231359	-1.447207
3.150000	1.857746	-2.205901	1.216905	-1.443530
3.160000	1.835640	-2.215240	1.202488	-1.439968
3.170000	1.813442	-2.224320	1.188105	-1.436638
3.180000	1.791155	-2.233098	1.173754	-1.433651
3.190000	1.768781	-2.241524	1.159431	-1.431109
3.200000	1.746326	-2.249535	1.145130	-1.429109
3.210000	1.723792	-2.257077	1.130846	-1.427735
3.220000	1.701186	-2.264099	1.116573	-1.427059
3.230000	1.678512	-2.270564	1.102303	-1.427141
3.240000	1.655776	-2.276438	1.088028	-1.428026
3.250000	1.632985	-2.281708	1.073739	-1.429746
3.260000	1.610144	-2.286377	1.059430	-1.432317
3.270000	1.587260	-2.290471	1.045090	-1.435738
3.280000	1.564337	-2.294023	1.030712	-1.439996
3.290000	1.541381	-2.297091	1.016288	-1.445062
3.300000	1.518396	-2.299734	1.001808	-1.450896
3.310000	1.495387	-2.302009	0.987267	-1.457443
3.320000	1.472357	-2.303970	0.972657	-1.464637
3.330000	1.449309	-2.305664	0.957973	-1.472404
3.340000	1.426245	-2.307122	0.943208	-1.480658
3.350000	1.403167	-2.308362	0.928358	-1.489310
3.360000	1.380078	-2.309384	0.913420	-1.498263
3.370000	1.356980	-2.310170	0.898392	-1.507412
3.380000	1.333876	-2.310688	0.883272	-1.516654
3.390000	1.310767	-2.310896	0.868059	-1.525876
3.400000	1.287659	-2.310746	0.852755	-1.534969
3.410000	1.264554	-2.310185	0.837361	-1.543821
3.420000	1.241457	-2.309159	0.821880	-1.552319
3.430000	1.218372	-2.307627	0.806316	-1.560353
3.440000	1.195306	-2.305562	0.790674	-1.567811
3.450000	1.172263	-2.302946	0.774962	-1.574588
3.460000	1.149249	-2.299779	0.759185	-1.580584
3.470000	1.126269	-2.296071	0.743353	-1.585700
3.480000	1.103329	-2.291847	0.727474	-1.589847
3.490000	1.080434	-2.287143	0.711560	-1.592944
3.500000	1.057588	-2.282008	0.695619	-1.594918
3.510000	1.034795	-2.276502	0.679665	-1.595710
3.520000	1.012059	-2.270677	0.663709	-1.595267
3.530000	0.989382	-2.264586	0.647764	-1.593554
3.540000	0.966768	-2.258270	0.631842	-1.590547
3.550000	0.944217	-2.251767	0.615957	-1.586238
3.560000	0.921733	-2.245107	0.600122	-1.580632
3.570000	0.899316	-2.238308	0.584349	-1.573747
3.580000	0.876967	-2.231376	0.568651	-1.565619
3.590000	0.854689	-2.224303	0.553041	-1.556296
3.600000	0.832482	-2.217070	0.537529	-1.545839
3.610000	0.810348	-2.209643	0.522127	-1.534321
3.620000	0.788290	-2.201978	0.506846	-1.521827
3.630000	0.766309	-2.194028	0.491694	-1.508449
3.640000	0.744410	-2.185741	0.476680	-1.494289
3.650000	0.722596	-2.177060	0.461810	-1.479455
3.660000	0.700871	-2.167925	0.447092	-1.464061
3.670000	0.679239	-2.158274	0.432531	-1.448220
3.680000	0.657707	-2.148051	0.418129	-1.432048
3.690000	0.636280	-2.137202	0.403890	-1.415658
3.700000	0.614965	-2.125680	0.389816	-1.399162
3.710000	0.593769	-2.113460	0.375907	-1.382667
3.720000	0.572698	-2.100528	0.362163	-1.366273
3.730000	0.551761	-2.086883	0.348581	-1.350074
3.740000	0.530963	-2.072538	0.335160	-1.334153
3.750000	0.510312	-2.057524	0.321897	-1.318586
3.760000	0.489815	-2.041886	0.308787	-1.303440
3.770000	0.469476	-2.025678	0.295826	-1.288770
3.780000	0.449303	-2.008960	0.283010	-1.274621
3.790000	0.429299	-1.991799	0.270332	-1.261027
3.800000	0.409468	-1.974255	0.257787	-1.248013
3.810000	0.389815	-1.956391	0.245370	-1.235595
3.820000	0.370341	-1.938273	0.233074	-1.223777
3.830000	0.351050	-1.919946	0.220892	-1.212554
3.840000	0.331943	-1.901440	0.208821	-1.201914
3.850000	0.313022	-1.882778	0.196852	-1.191836
3.860000	0.294288	-1.863974	0.184982	-1.182290
3.870000	0.275743	-1.845033	0.173205	-1.173239
3.880000	0.257387	-1.825955	0.161516	-1.164640
3.890000	0.239224	-1.806731	0.149911	-1.156443
3.900000	0.221253	-1.787355	0.138386	-1.148591
3.910000	0.203477	-1.767818	0.126938	-1.141025
3.920000	0.185898	-1.748112	0.115564	-1.133677
3.930000	0.168516	-1.728232	0.104264	-1.126480
3.940000	0.151334	-1.708172	0.093035	-1.119360
3.950000	0.134353	-1.687928	0.081877	-1.112242
3.960000	0.117576	-1.667494	0.070790	-1.105052
3.970000	0.101004	-1.646865	0.059776	-1.097714
3.980000	0.084639	-1.626030	0.048837	-1.090152
3.990000	0.068484	-1.604979	0.037974	-1.082291
4.000000	0.052540	-1.583694	0.027192	-1.074060
4.010000	0.036811	-1.562151	0.016494	-1.065391
4.020000	0.021298	-1.540323	0.005886	-1.056217
4.030000	0.006005	-1.518188	-0.004628	-1.046477
4.040000	-0.009065	-1.495726	-0.015042	-1.036114
4.050000	-0.023908	-1.472922	-0.025348	-1.025076
4.060000	-0.038522	-1.449767	-0.035541	-1.013317
4.070000	-0.052902	-1.426263	-0.045612	-1.000797
4.080000	-0.067046	-1.402427	-0.055554	-0.987483
4.090000	-0.080950	-1.378283	-0.065359	-0.973347
4.100000	-0.094611	-1.353861	-0.075018	-0.958373
4.110000	-0.108026	-1.329212	-0.084524	-0.942550
4.120000	-0.121194	-1.304392	-0.093866	-0.925876
4.130000	-0.134114	-1.279457	-0.103038	-0.908358
4.140000	-0.146783	-1.254459	-0.112031	-0.890014
4.150000	-0.159203	-1.229449	-0.120836	-0.870870
4.160000	-0.171372	-1.204468	-0.129446	-0.850962
4.170000	-0.183292	-1.179547	-0.137853	-0.830337
4.180000	-0.194964	-1.154702	-0.146050	-0.809048
4.190000	-0.206387	-1.129938	-0.154032	-0.787159
4.200000	-0.217563	-1.105240	-0.161792	-0.764742
4.210000	-0.228492	-1.080585	-0.169325	-0.741873
4.220000	-0.239174	-1.055946	-0.176628	-0.718635
4.230000	-0.249611	-1.031291	-0.183697	-0.695115
4.240000	-0.259800	-1.006583	-0.190530	-0.671404
4.250000	-0.269742	-0.981783	-0.197125	-0.647591
4.260000	-0.279435	-0.956857	-0.203481	-0.623770
4.270000	-0.288878	-0.931774	-0.209600	-0.600029
4.280000	-0.298070	-0.906511	-0.215482	-0.576455
4.290000	-0.307008	-0.881053	-0.221130	-0.553132
4.300000	-0.315690	-0.855388	-0.226546	-0.530139
4.310000	-0.324115	-0.829507	-0.231734	-0.507548
4.320000	-0.332280	-0.803408	-0.236699	-0.485423
