Time(s)	xt(m)	vt(m/s)	xb(m)	vb(m/s)
0.000000	0.000000	0.000000	0.000000	0.000000
0.010000	0.000063	0.012580	0.000000	0.000036
0.020000	0.000252	0.025206	0.000001	0.000211
0.030000	0.000567	0.037872	0.000005	0.000623
0.040000	0.001009	0.050573	0.000015	0.001367
0.050000	0.001579	0.063301	0.000034	0.002533
0.060000	0.002275	0.076053	0.000067	0.004208
0.070000	0.003100	0.088824	0.000120	0.006471
0.080000	0.004052	0.101614	0.000199	0.009394
0.090000	0.005132	0.114425	0.000310	0.013040
0.100000	0.006341	0.127261	0.000462	0.017465
0.110000	0.007677	0.140132	0.000662	0.022713
0.120000	0.009143	0.153045	0.000919	0.028822
0.130000	0.010739	0.166006	0.001242	0.035816
0.140000	0.012464	0.179017	0.001639	0.043709
0.150000	0.014319	0.192075	0.002119	0.052508
0.160000	0.016305	0.205165	0.002692	0.062204
0.170000	0.018422	0.218269	0.003366	0.072782
0.180000	0.020671	0.231359	0.004150	0.084214
0.190000	0.023049	0.244399	0.005053	0.096461
0.200000	0.025558	0.257354	0.006082	0.109476
0.210000	0.028196	0.270179	0.007245	0.123200
0.220000	0.030961	0.282841	0.008548	0.137566
0.230000	0.033852	0.295313	0.009998	0.152498
0.240000	0.036867	0.307576	0.011600	0.167910
0.250000	0.040003	0.319624	0.013358	0.183710
0.260000	0.043259	0.331471	0.015275	0.199801
0.270000	0.046632	0.343142	0.017354	0.216081
0.280000	0.050121	0.354675	0.019597	0.232442
0.290000	0.053725	0.366111	0.022003	0.248780
0.300000	0.057443	0.377509	0.024572	0.264985
0.310000	0.061275	0.388925	0.027302	0.280953
0.320000	0.065222	0.400417	0.030190	0.296583
0.330000	0.069284	0.412040	0.033232	0.311778
0.340000	0.073463	0.423836	0.036424	0.326448
0.350000	0.077761	0.435842	0.039759	0.340514
0.360000	0.082181	0.448078	0.043232	0.353902
0.370000	0.086724	0.460553	0.046835	0.366551
0.380000	0.091393	0.473262	0.050560	0.378413
0.390000	0.096190	0.486189	0.054400	0.389446
0.400000	0.101117	0.499307	0.058346	0.399626
0.410000	0.106176	0.512581	0.062390	0.408936
0.420000	0.111369	0.525972	0.066522	0.417374
0.430000	0.116696	0.539439	0.070734	0.424948
0.440000	0.122158	0.552940	0.075018	0.431678
0.450000	0.127755	0.566432	0.079365	0.437592
0.460000	0.133486	0.579870	0.083767	0.442730
0.470000	0.139352	0.593212	0.088217	0.447139
0.480000	0.145350	0.606415	0.092708	0.450875
0.490000	0.151480	0.619431	0.097233	0.454000
0.500000	0.157738	0.632214	0.101786	0.456582
0.510000	0.164123	0.644722	0.106363	0.458693
0.520000	0.170631	0.656910	0.110959	0.460407
0.530000	0.177260	0.668734	0.115570	0.461802
0.540000	0.184005	0.680159	0.120194	0.462955
0.550000	0.190862	0.691159	0.124828	0.463944
0.560000	0.197827	0.701719	0.129472	0.464842
0.570000	0.204895	0.711839	0.134125	0.465721
0.580000	0.212062	0.721538	0.138787	0.466653
0.590000	0.219324	0.730844	0.143459	0.467699
0.600000	0.226678	0.739793	0.148142	0.468921
0.610000	0.234119	0.748440	0.152838	0.470373
0.620000	0.241646	0.756839	0.157550	0.472105
0.630000	0.249255	0.765062	0.162281	0.474161
0.640000	0.256946	0.773173	0.167034	0.476579
0.650000	0.264719	0.781231	0.171814	0.479393
0.660000	0.272571	0.789282	0.176624	0.482633
0.670000	0.280504	0.797354	0.181468	0.486320
0.680000	0.288518	0.805467	0.186352	0.490473
0.690000	0.296614	0.813619	0.191279	0.495104
0.700000	0.304791	0.821795	0.196255	0.500220
0.710000	0.313050	0.829962	0.201285	0.505823
0.720000	0.321390	0.838075	0.206373	0.511906
0.730000	0.329811	0.846088	0.211525	0.518460
0.740000	0.338311	0.853953	0.216744	0.525466
0.750000	0.346889	0.861621	0.222036	0.532899
0.760000	0.355543	0.869055	0.227403	0.540727
0.770000	0.364269	0.876235	0.232851	0.548913
0.780000	0.373067	0.883155	0.238383	0.557412
0.790000	0.381932	0.889818	0.244000	0.566175
0.800000	0.390862	0.896238	0.249707	0.575146
0.810000	0.399856	0.902439	0.255504	0.584265
0.820000	0.408910	0.908450	0.261392	0.593471
0.830000	0.418024	0.914294	0.267373	0.602698
0.840000	0.427196	0.919994	0.273446	0.611882
0.850000	0.436424	0.925561	0.279611	0.620955
0.860000	0.445706	0.930995	0.285865	0.629852
0.870000	0.455043	0.936288	0.292207	0.638509
0.880000	0.464432	0.941418	0.298634	0.646863
0.890000	0.473871	0.946353	0.305143	0.654855
0.900000	0.483358	0.951060	0.311730	0.662428
0.910000	0.492891	0.955510	0.318390	0.669528
0.920000	0.502467	0.959674	0.325119	0.676106
0.930000	0.512083	0.963531	0.331910	0.682117
0.940000	0.521737	0.967074	0.338759	0.687519
0.950000	0.531424	0.970308	0.345658	0.692277
0.960000	0.541142	0.973248	0.352602	0.696360
0.970000	0.550888	0.975923	0.359583	0.699746
0.980000	0.560660	0.978370	0.366595	0.702415
0.990000	0.570455	0.980629	0.373629	0.704358
1.000000	0.580272	0.982734	0.380679	0.705570
1.010000	0.590109	0.984716	0.387738	0.706058
1.020000	0.599966	0.986602	0.394798	0.705833
1.030000	0.609841	0.988411	0.401852	0.704917
1.040000	0.619734	0.990149	0.408894	0.703336
1.050000	0.629644	0.991809	0.415917	0.701127
1.060000	0.639570	0.993379	0.422915	0.698332
1.070000	0.649511	0.994836	0.429882	0.695000
1.080000	0.659466	0.996162	0.436813	0.691184
1.090000	0.669433	0.997338	0.443704	0.686942
1.100000	0.679412	0.998354	0.450551	0.682338
1.110000	0.689400	0.999203	0.457350	0.677435
1.120000	0.699396	0.999892	0.464099	0.672302
1.130000	0.709397	1.000437	0.470795	0.667005
1.140000	0.719404	1.000868	0.477439	0.661614
1.150000	0.729414	1.001215	0.484028	0.656198
1.160000	0.739428	1.001510	0.490563	0.650826
1.170000	0.749445	1.001786	0.497045	0.645564
1.180000	0.759464	1.002069	0.503475	0.640478
1.190000	0.769486	1.002373	0.509855	0.635631
1.200000	0.779511	1.002696	0.516188	0.631084
1.210000	0.789540	1.003021	0.522478	0.626893
1.220000	0.799572	1.003308	0.528727	0.623111
1.230000	0.809606	1.003503	0.534941	0.619782
1.240000	0.819641	1.003552	0.541125	0.616948
1.250000	0.829676	1.003387	0.547282	0.614640
1.260000	0.839708	1.002930	0.553419	0.612881
1.270000	0.849734	1.002121	0.559542	0.611687
1.280000	0.859749	1.000912	0.565655	0.611061
1.290000	0.869750	0.999270	0.571765	0.610999
1.300000	0.879733	0.997179	0.577877	0.611483
1.310000	0.889692	0.994640	0.583996	0.612488
1.320000	0.899624	0.991676	0.590128	0.613977
1.330000	0.909525	0.988317	0.596277	0.615907
1.340000	0.919389	0.984597	0.602448	0.618224
1.350000	0.929215	0.980557	0.608643	0.620868
1.360000	0.939000	0.976236	0.614866	0.623771
1.370000	0.948739	0.971674	0.621119	0.626862
1.380000	0.958432	0.966895	0.627403	0.630066
1.390000	0.968077	0.961915	0.633720	0.633305
1.400000	0.977670	0.956736	0.640069	0.636499
1.410000	0.987211	0.951354	0.646450	0.639568
1.420000	0.996696	0.945753	0.652860	0.642432
1.430000	1.006125	0.939906	0.659298	0.645010
1.440000	1.015494	0.933792	0.665759	0.647227
1.450000	1.024800	0.927388	0.672241	0.649006
1.460000	1.034040	0.920680	0.678737	0.650276
1.470000	1.043212	0.913658	0.685244	0.650969
1.480000	1.052313	0.906324	0.691755	0.651023
1.490000	1.061338	0.898688	0.698262	0.650379
1.500000	1.070285	0.890770	0.704760	0.648986
1.510000	1.079152	0.882595	0.711239	0.646802
1.520000	1.087936	0.874189	0.717693	0.643790
1.530000	1.096635	0.865582	0.724112	0.639921
1.540000	1.105248	0.856800	0.730489	0.635177
1.550000	1.113771	0.847865	0.736813	0.629549
1.560000	1.122204	0.838793	0.743077	0.623038
1.570000	1.130546	0.829591	0.749271	0.615653
1.580000	1.138796	0.820262	0.755387	0.607413
1.590000	1.146951	0.810802	0.761416	0.598347
1.600000	1.155011	0.801200	0.767351	0.588493
1.610000	1.162975	0.791445	0.773184	0.577897
1.620000	1.170840	0.781526	0.778907	0.566612
1.630000	1.178605	0.771436	0.784514	0.554698
1.640000	1.186268	0.761170	0.789999	0.542221
1.650000	1.193827	0.750728	0.795357	0.529252
1.660000	1.201282	0.740116	0.800583	0.515868
1.670000	1.208629	0.729344	0.805673	0.502147
1.680000	1.215868	0.718430	0.810625	0.488171
1.690000	1.222997	0.707392	0.815436	0.474022
1.700000	1.230016	0.696247	0.820105	0.459786
1.710000	1.236922	0.685011	0.824631	0.445545
1.720000	1.243716	0.673701	0.829016	0.431383
1.730000	1.250396	0.662326	0.833260	0.417381
1.740000	1.256962	0.650891	0.837364	0.403617
1.750000	1.263413	0.639397	0.841333	0.390166
1.760000	1.269750	0.627841	0.845169	0.377098
1.770000	1.275970	0.616218	0.848876	0.364478
1.780000	1.282074	0.604518	0.852460	0.352364
1.790000	1.288060	0.592735	0.855926	0.340807
1.800000	1.293928	0.580858	0.859278	0.329851
1.810000	1.299677	0.568883	0.862525	0.319532
1.820000	1.305306	0.556805	0.865671	0.309876
1.830000	1.310813	0.544625	0.868724	0.300901
1.840000	1.316198	0.532341	0.871691	0.292616
1.850000	1.321459	0.519958	0.874579	0.285020
1.860000	1.326597	0.507476	0.877394	0.278104
1.870000	1.331608	0.494896	0.880143	0.271848
1.880000	1.336494	0.482218	0.882833	0.266226
1.890000	1.341252	0.469440	0.885470	0.261202
1.900000	1.345883	0.456554	0.888059	0.256732
1.910000	1.350383	0.443552	0.890606	0.252765
1.920000	1.354753	0.430423	0.893116	0.249242
1.930000	1.358991	0.417156	0.895592	0.246100
1.940000	1.363096	0.403742	0.898039	0.243269
1.950000	1.367065	0.390174	0.900458	0.240675
1.960000	1.370899	0.376446	0.902853	0.238240
1.970000	1.374594	0.362563	0.905223	0.235882
1.980000	1.378149	0.348529	0.907571	0.233519
1.990000	1.381564	0.334355	0.909894	0.231067
2.000000	1.384836	0.320057	0.912191	0.228442
2.010000	1.387965	0.305653	0.914462	0.225564
2.020000	1.390949	0.291160	0.916701	0.222353
2.030000	1.393788	0.276595	0.918907	0.218734
2.040000	1.396481	0.261976	0.921075	0.214635
2.050000	1.399027	0.247313	0.923198	0.209992
2.060000	1.401427	0.232615	0.925272	0.204747
2.070000	1.403679	0.217883	0.927291	0.198848
2.080000	1.405784	0.203116	0.929247	0.192252
2.090000	1.407741	0.188304	0.931134	0.184924
2.100000	1.409550	0.173441	0.932943	0.176838
2.110000	1.411210	0.158516	0.934668	0.167976
2.120000	1.412720	0.143518	0.936300	0.158330
2.130000	1.414080	0.128439	0.937832	0.147901
2.140000	1.415289	0.113275	0.939255	0.136697
2.150000	1.416345	0.098027	0.940563	0.124737
2.160000	1.417249	0.082699	0.941748	0.112047
2.170000	1.417999	0.067297	0.942802	0.098661
2.180000	1.418595	0.051834	0.943719	0.084622
2.190000	1.419036	0.036326	0.944492	0.069980
2.200000	1.419321	0.020786	0.945116	0.054791
2.210000	1.419451	0.005230	0.945586	0.039117
2.220000	1.419426	-0.010328	0.945897	0.023027
2.230000	1.419245	-0.025878	0.946046	0.006593
2.240000	1.418908	-0.041411	0.946028	-0.010108
2.250000	1.418417	-0.056921	0.945843	-0.026995
2.260000	1.417770	-0.072406	0.945488	-0.043986
2.270000	1.416969	-0.087868	0.944963	-0.061000
2.280000	1.416013	-0.103308	0.944268	-0.077951
2.290000	1.414902	-0.118730	0.943405	-0.094758
2.300000	1.413638	-0.134137	0.942374	-0.111340
2.310000	1.412220	-0.149534	0.941179	-0.127620
2.320000	1.410647	-0.164924	0.939823	-0.143524
2.330000	1.408921	-0.180311	0.938310	-0.158984
2.340000	1.407041	-0.195697	0.936645	-0.173936
2.350000	1.405007	-0.211086	0.934833	-0.188325
2.360000	1.402820	-0.226482	0.932880	-0.202099
2.370000	1.400478	-0.241889	0.930793	-0.215218
2.380000	1.397982	-0.257310	0.928578	-0.227648
2.390000	1.395331	-0.272752	0.926243	-0.239364
2.400000	1.392527	-0.288218	0.923793	-0.250349
2.410000	1.389567	-0.303709	0.921238	-0.260598
2.420000	1.386452	-0.319227	0.918584	-0.270112
2.430000	1.383182	-0.334765	0.915838	-0.278902
2.440000	1.379757	-0.350317	0.913008	-0.286990
2.450000	1.376176	-0.365866	0.910101	-0.294402
2.460000	1.372440	-0.381390	0.907122	-0.301178
2.470000	1.368548	-0.396861	0.904079	-0.307360
2.480000	1.364503	-0.412246	0.900977	-0.312998
2.490000	1.360304	-0.427509	0.897821	-0.318150
2.500000	1.355953	-0.442607	0.894615	-0.322875
2.510000	1.351452	-0.457501	0.891364	-0.327238
2.520000	1.346804	-0.472155	0.888072	-0.331306
2.530000	1.342010	-0.486538	0.884739	-0.335146
2.540000	1.337074	-0.500625	0.881369	-0.338827
2.550000	1.331999	-0.514402	0.877963	-0.342415
2.560000	1.326787	-0.527873	0.874521	-0.345977
2.570000	1.321442	-0.541049	0.871043	-0.349575
2.580000	1.315967	-0.553958	0.867529	-0.353271
2.590000	1.310364	-0.566635	0.863977	-0.357121
2.600000	1.304635	-0.579115	0.860386	-0.361178
2.610000	1.298782	-0.591446	0.856753	-0.365491
2.620000	1.292806	-0.603668	0.853075	-0.370105
2.630000	1.286709	-0.615827	0.849350	-0.375059
2.640000	1.280490	-0.627952	0.845573	-0.380389
2.650000	1.274150	-0.640058	0.841741	-0.386125
2.660000	1.267689	-0.652153	0.837849	-0.392293
2.670000	1.261107	-0.664233	0.833893	-0.398912
2.680000	1.254404	-0.676282	0.829869	-0.405996
2.690000	1.247582	-0.688273	0.825772	-0.413553
2.700000	1.240639	-0.700178	0.821596	-0.421586
2.710000	1.233578	-0.711971	0.817338	-0.430088
2.720000	1.226400	-0.723619	0.812993	-0.439049
2.730000	1.219107	-0.735095	0.808556	-0.448450
2.740000	1.211699	-0.746379	0.804023	-0.458267
2.750000	1.204180	-0.757461	0.799389	-0.468468
2.760000	1.196550	-0.768334	0.794652	-0.479015
2.770000	1.188814	-0.779006	0.789808	-0.489865
2.780000	1.180971	-0.789489	0.784854	-0.500969
2.790000	1.173024	-0.799798	0.779788	-0.512275
2.800000	1.164976	-0.809951	0.774608	-0.523727
2.810000	1.156826	-0.819968	0.769313	-0.535265
2.820000	1.148577	-0.829867	0.763903	-0.546829
2.830000	1.140229	-0.839658	0.758377	-0.558356
2.840000	1.131784	-0.849349	0.752736	-0.569785
2.850000	1.123242	-0.858938	0.746982	-0.581054
2.860000	1.114605	-0.868418	0.741116	-0.592104
2.870000	1.105874	-0.877778	0.735140	-0.602877
2.880000	1.097050	-0.887002	0.729059	-0.613317
2.890000	1.088135	-0.896070	0.722875	-0.623372
2.900000	1.079129	-0.904965	0.716593	-0.632993
2.910000	1.070036	-0.913666	0.710217	-0.642135
2.920000	1.060857	-0.922156	0.703752	-0.650760
2.930000	1.051594	-0.930421	0.697204	-0.658830
2.940000	1.042249	-0.938452	0.690577	-0.666317
2.950000	1.032825	-0.946241	0.683879	-0.673193
2.960000	1.023325	-0.953784	0.677116	-0.679440
2.970000	1.013751	-0.961079	0.670293	-0.685045
2.980000	1.004104	-0.968128	0.663417	-0.689998
2.990000	0.994389	-0.974933	0.656495	-0.694299
3.000000	0.984607	-0.981496	0.649533	-0.697950
3.010000	0.974760	-0.987819	0.642538	-0.700963
3.020000	0.964851	-0.993905	0.635516	-0.703353
3.030000	0.954882	-0.999760	0.628473	-0.705140
3.040000	0.944857	-1.005390	0.621415	-0.706353
3.050000	0.934775	-1.010802	0.614348	-0.707022
3.060000	0.924641	-1.016008	0.607276	-0.707184
3.070000	0.914456	-1.021021	0.600206	-0.706881
3.080000	0.904221	-1.025859	0.593140	-0.706158
3.090000	0.893939	-1.030541	0.586084	-0.705062
3.100000	0.883611	-1.035085	0.579040	-0.703646
3.110000	0.873238	-1.039509	0.572012	-0.701965
3.120000	0.862821	-1.043829	0.565001	-0.700073
3.130000	0.852362	-1.048058	0.558011	-0.698030
3.140000	0.841860	-1.052200	0.551041	-0.695894
3.150000	0.831318	-1.056255	0.544093	-0.693724
3.160000	0.820735	-1.060215	0.537167	-0.691579
3.170000	0.810114	-1.064062	0.530261	-0.689516
3.180000	0.799455	-1.067772	0.523376	-0.687590
3.190000	0.788759	-1.071317	0.516509	-0.685853
3.200000	0.778029	-1.074669	0.509658	-0.684352
3.210000	0.767266	-1.077797	0.502821	-0.683131
3.220000	0.756474	-1.080671	0.495994	-0.682228
3.230000	0.745654	-1.083268	0.489175	-0.681675
3.240000	0.734810	-1.085571	0.482359	-0.681496
3.250000	0.723944	-1.087573	0.475544	-0.681710
3.260000	0.713059	-1.089278	0.468724	-0.682327
3.270000	0.702159	-1.090698	0.461896	-0.683352
3.280000	0.691246	-1.091854	0.455056	-0.684780
3.290000	0.680323	-1.092775	0.448199	-0.686600
3.300000	0.669391	-1.093494	0.441322	-0.688796
3.310000	0.658453	-1.094040	0.434422	-0.691345
3.320000	0.647511	-1.094444	0.427494	-0.694219
3.330000	0.636565	-1.094732	0.420537	-0.697384
3.340000	0.625616	-1.094924	0.413546	-0.700802
3.350000	0.614667	-1.095028	0.406520	-0.704432
3.360000	0.603716	-1.095042	0.399457	-0.708230
3.370000	0.592766	-1.094957	0.392355	-0.712148
3.380000	0.581817	-1.094753	0.385213	-0.716138
3.390000	0.570872	-1.094408	0.378032	-0.720150
3.400000	0.559930	-1.093892	0.370811	-0.724130
3.410000	0.548994	-1.093176	0.363550	-0.728026
3.420000	0.538067	-1.092235	0.356250	-0.731785
3.430000	0.527150	-1.091048	0.348915	-0.735354
3.440000	0.516247	-1.089597	0.341544	-0.738680
3.450000	0.505359	-1.087870	0.334142	-0.741710
3.460000	0.494491	-1.085866	0.326711	-0.744396
3.470000	0.483643	-1.083592	0.319255	-0.746688
3.480000	0.472820	-1.081064	0.311779	-0.748542
3.490000	0.462023	-1.078302	0.304286	-0.749916
3.500000	0.451254	-1.075333	0.296782	-0.750773
3.510000	0.440516	-1.072184	0.289272	-0.751080
3.520000	0.429811	-1.068885	0.281762	-0.750811
3.530000	0.419139	-1.065464	0.274258	-0.749944
3.540000	0.408502	-1.061948	0.266766	-0.748464
3.550000	0.397900	-1.058358	0.259291	-0.746364
3.560000	0.387335	-1.054709	0.251840	-0.743643
3.570000	0.376806	-1.051013	0.244420	-0.740308
3.580000	0.366315	-1.047270	0.237036	-0.736372
3.590000	0.355861	-1.043475	0.229695	-0.731854
3.600000	0.345446	-1.039618	0.222401	-0.726781
3.610000	0.335069	-1.035686	0.215161	-0.721188
3.620000	0.324732	-1.031656	0.207979	-0.715112
3.630000	0.314436	-1.027500	0.200860	-0.708596
3.640000	0.304183	-1.023186	0.193808	-0.701687
3.650000	0.293973	-1.018683	0.186827	-0.694436
3.660000	0.283810	-1.013960	0.179921	-0.686896
3.670000	0.273695	-1.008985	0.173090	-0.679121
3.680000	0.263631	-1.003726	0.166339	-0.671166
3.690000	0.253621	-0.998155	0.159667	-0.663086
3.700000	0.243669	-0.992248	0.153077	-0.654932
3.710000	0.233778	-0.985990	0.146569	-0.646757
3.720000	0.223951	-0.979372	0.140142	-0.638609
3.730000	0.214191	-0.972395	0.133796	-0.630532
3.740000	0.204504	-0.965066	0.127531	-0.622568
3.750000	0.194891	-0.957399	0.121345	-0.614753
3.760000	0.185357	-0.949420	0.115235	-0.607119
3.770000	0.175904	-0.941160	0.109201	-0.599694
3.780000	0.166535	-0.932653	0.103241	-0.592500
3.790000	0.157251	-0.923934	0.097351	-0.585555
3.800000	0.148056	-0.915038	0.091529	-0.578872
3.810000	0.138951	-0.906002	0.085772	-0.572460
3.820000	0.129937	-0.896854	0.080079	-0.566323
3.830000	0.121014	-0.887621	0.074445	-0.560462
3.840000	0.112185	-0.878324	0.068868	-0.554871
3.850000	0.103448	-0.868974	0.063347	-0.549545
3.860000	0.094805	-0.859576	0.057877	-0.544471
3.870000	0.086257	-0.850134	0.052456	-0.539635
3.880000	0.077803	-0.840645	0.047083	-0.535019
3.890000	0.069444	-0.831107	0.041755	-0.530603
3.900000	0.061181	-0.821513	0.036471	-0.526364
3.910000	0.053014	-0.811858	0.031228	-0.522274
3.920000	0.044944	-0.802137	0.026025	-0.518307
3.930000	0.036971	-0.792348	0.020861	-0.514432
3.940000	0.029097	-0.782487	0.015736	-0.510617
3.950000	0.021322	-0.772552	0.010649	-0.506830
3.960000	0.013646	-0.762538	0.005599	-0.503037
3.970000	0.006071	-0.752441	0.000588	-0.499203
3.980000	-0.001402	-0.742255	-0.004384	-0.495296
3.990000	-0.008773	-0.731971	-0.009317	-0.491281
4.000000	-0.016041	-0.721579	-0.014210	-0.487125
4.010000	-0.023205	-0.711068	-0.019059	-0.482795
4.020000	-0.030262	-0.700426	-0.023865	-0.478262
4.030000	-0.037213	-0.689638	-0.028624	-0.473495
4.040000	-0.044054	-0.678692	-0.033334	-0.468466
4.050000	-0.050786	-0.667579	-0.037992	-0.463151
4.060000	-0.057405	-0.656295	-0.042596	-0.457525
4.070000	-0.063911	-0.644839	-0.047142	-0.451569
4.080000	-0.070302	-0.633219	-0.051626	-0.445262
4.090000	-0.076575	-0.621448	-0.056046	-0.438591
4.100000	-0.082730	-0.609547	-0.060397	-0.431543
4.110000	-0.088766	-0.597541	-0.064675	-0.424111
4.120000	-0.094681	-0.585461	-0.068878	-0.416290
4.130000	-0.100475	-0.573337	-0.073000	-0.408080
4.140000	-0.106147	-0.561198	-0.077038	-0.399486
4.150000	-0.111699	-0.549071	-0.080988	-0.390516
4.160000	-0.117129	-0.536979	-0.084847	-0.381186
4.170000	-0.122439	-0.524938	-0.088611	-0.371512
4.180000	-0.127628	-0.512959	-0.092276	-0.361518
4.190000	-0.132698	-0.501041	-0.095840	-0.351231
4.200000	-0.137649	-0.489180	-0.099300	-0.340683
4.210000	-0.142482	-0.477362	-0.102653	-0.329908
4.220000	-0.147196	-0.465571	-0.105897	-0.318943
4.230000	-0.151793	-0.453788	-0.109031	-0.307829
4.240000	-0.156272	-0.441995	-0.112054	-0.296607
4.250000	-0.160633	-0.430170	-0.114963	-0.285320
4.260000	-0.164875	-0.418293	-0.117760	-0.274010
4.270000	-0.168999	-0.406350	-0.120444	-0.262719
4.280000	-0.173002	-0.394328	-0.123015	-0.251490
4.290000	-0.176885	-0.382219	-0.125474	-0.240362
4.300000	-0.180646	-0.370014	-0.127822	-0.229372
4.310000	-0.184285	-0.357711	-0.130062	-0.218557
