Time(s)	xt(m)	vt(m/s)	xb(m)	vb(m/s)
0.000000	0.000000	0.000000	0.000000	0.000000
0.010000	0.000090	0.017995	0.000000	0.000052
0.020000	0.000360	0.036001	0.000002	0.000302
0.030000	0.000810	0.054009	0.000007	0.000890
0.040000	0.001440	0.072012	0.000021	0.001951
0.050000	0.002250	0.090000	0.000048	0.003614
0.060000	0.003240	0.107964	0.000096	0.006000
0.070000	0.004409	0.125897	0.000171	0.009218
0.080000	0.005758	0.143795	0.000283	0.013371
0.090000	0.007285	0.161654	0.000442	0.018546
0.100000	0.008991	0.179470	0.000658	0.024818
0.110000	0.010874	0.197244	0.000942	0.032249
0.120000	0.012936	0.214974	0.001307	0.040885
0.130000	0.015174	0.232661	0.001764	0.050758
0.140000	0.017589	0.250302	0.002326	0.061883
0.150000	0.020180	0.267894	0.003006	0.074262
0.160000	0.022946	0.285430	0.003816	0.087878
0.170000	0.025888	0.302902	0.004767	0.102701
0.180000	0.029004	0.320295	0.005873	0.118686
0.190000	0.032294	0.337592	0.007145	0.135771
0.200000	0.035756	0.354780	0.008592	0.153884
0.210000	0.039389	0.371841	0.010226	0.172935
0.220000	0.043192	0.388764	0.012054	0.192827
0.230000	0.047164	0.405536	0.014085	0.213448
0.240000	0.051302	0.422152	0.016325	0.234678
0.250000	0.055606	0.438611	0.018780	0.256391
0.260000	0.060074	0.454919	0.021454	0.278450
0.270000	0.064704	0.471086	0.024349	0.300716
0.280000	0.069495	0.487133	0.027468	0.323048
0.290000	0.074446	0.503084	0.030810	0.345300
0.300000	0.079557	0.518963	0.034374	0.367332
0.310000	0.084825	0.534796	0.038156	0.389001
0.320000	0.090252	0.550613	0.042152	0.410175
0.330000	0.095838	0.566436	0.046357	0.430722
0.340000	0.101581	0.582284	0.050764	0.450524
0.350000	0.107483	0.598175	0.055365	0.469470
0.360000	0.113545	0.614119	0.060150	0.487459
0.370000	0.119766	0.630118	0.065110	0.504405
0.380000	0.126147	0.646168	0.070234	0.520235
0.390000	0.132690	0.662264	0.075511	0.534888
0.400000	0.139393	0.678394	0.080928	0.548321
0.410000	0.146258	0.694541	0.086473	0.560504
0.420000	0.153284	0.710686	0.092134	0.571423
0.430000	0.160471	0.726811	0.097898	0.581080
0.440000	0.167820	0.742898	0.103751	0.589491
0.450000	0.175329	0.758927	0.109683	0.596688
0.460000	0.182998	0.774874	0.115681	0.602715
0.470000	0.190826	0.790719	0.121734	0.607631
0.480000	0.198812	0.806441	0.127830	0.611506
0.490000	0.206954	0.822018	0.133961	0.614424
0.500000	0.215252	0.837424	0.140116	0.616477
0.510000	0.223702	0.852636	0.146288	0.617764
0.520000	0.232304	0.867631	0.152469	0.618395
0.530000	0.241054	0.882386	0.158654	0.618482
0.540000	0.249951	0.896881	0.164837	0.618145
0.550000	0.258991	0.911097	0.171016	0.617504
0.560000	0.268172	0.925023	0.177187	0.616680
0.570000	0.277490	0.938652	0.183349	0.615793
0.580000	0.286944	0.951982	0.189503	0.614964
0.590000	0.296529	0.965019	0.195649	0.614306
0.600000	0.306243	0.977779	0.201790	0.613931
0.610000	0.316084	0.990277	0.207929	0.613941
0.620000	0.326048	1.002537	0.214070	0.614435
0.630000	0.336134	1.014579	0.220220	0.615503
0.640000	0.346339	1.026427	0.226383	0.617222
0.650000	0.356662	1.038103	0.232566	0.619664
0.660000	0.367100	1.049624	0.238779	0.622890
0.670000	0.377654	1.061000	0.245027	0.626947
0.680000	0.388320	1.072235	0.251320	0.631874
0.690000	0.399098	1.083330	0.257667	0.637696
0.700000	0.409986	1.094274	0.264077	0.644428
0.710000	0.420983	1.105049	0.270559	0.652069
0.720000	0.432086	1.115637	0.277122	0.660609
0.730000	0.443295	1.126016	0.283774	0.670025
0.740000	0.454606	1.136164	0.290525	0.680282
0.750000	0.466017	1.146063	0.297382	0.691330
0.760000	0.477526	1.155699	0.304354	0.703111
0.770000	0.489130	1.165064	0.311447	0.715554
0.780000	0.500827	1.174157	0.318667	0.728581
0.790000	0.512613	1.182980	0.326020	0.742102
0.800000	0.524485	1.191543	0.333510	0.756021
0.810000	0.536443	1.199857	0.341141	0.770234
0.820000	0.548482	1.207936	0.348916	0.784634
0.830000	0.560601	1.215796	0.356834	0.799108
0.840000	0.572797	1.223447	0.364898	0.813543
0.850000	0.585069	1.230896	0.373105	0.827825
0.860000	0.597414	1.238148	0.381453	0.841839
0.870000	0.609831	1.245200	0.389940	0.855474
0.880000	0.622317	1.252046	0.398561	0.868621
0.890000	0.634871	1.258674	0.407311	0.881177
0.900000	0.647490	1.265075	0.416183	0.893044
0.910000	0.660172	1.271237	0.425169	0.904132
0.920000	0.672914	1.277148	0.434262	0.914356
0.930000	0.685714	1.282802	0.443453	0.923645
0.940000	0.698569	1.288196	0.452732	0.931931
0.950000	0.711477	1.293331	0.462088	0.939162
0.960000	0.724435	1.298218	0.471511	0.945294
0.970000	0.737441	1.302868	0.480990	0.950296
0.980000	0.750492	1.307295	0.490514	0.954148
0.990000	0.763586	1.311516	0.500069	0.956842
1.000000	0.776721	1.315546	0.509647	0.958384
1.010000	0.789896	1.319401	0.519233	0.958792
1.020000	0.803109	1.323091	0.528819	0.958095
1.030000	0.816358	1.326619	0.538392	0.956334
1.040000	0.829641	1.329985	0.547942	0.953564
1.050000	0.842957	1.333186	0.557460	0.949849
1.060000	0.856304	1.336212	0.566936	0.945262
1.070000	0.869680	1.339050	0.576362	0.939887
1.080000	0.883084	1.341691	0.585731	0.933813
1.090000	0.896513	1.344122	0.595037	0.927139
1.100000	0.909966	1.346333	0.604273	0.919965
1.110000	0.923439	1.348319	0.613435	0.912398
1.120000	0.936932	1.350081	0.622520	0.904547
1.130000	0.950440	1.351622	0.631525	0.896521
1.140000	0.963963	1.352948	0.640450	0.888430
1.150000	0.977498	1.354068	0.649294	0.880382
1.160000	0.991044	1.354996	0.658058	0.872483
1.170000	1.004598	1.355743	0.666744	0.864836
1.180000	1.018158	1.356315	0.675356	0.857537
1.190000	1.031724	1.356714	0.683896	0.850677
1.200000	1.045292	1.356936	0.692371	0.844340
1.210000	1.058862	1.356970	0.700785	0.838603
1.220000	1.072431	1.356799	0.709145	0.833532
1.230000	1.085997	1.356402	0.717458	0.829184
1.240000	1.099558	1.355749	0.725732	0.825604
1.250000	1.113111	1.354809	0.733973	0.822828
1.260000	1.126653	1.353556	0.742191	0.820876
1.270000	1.140181	1.351966	0.750393	0.819758
1.280000	1.153691	1.350016	0.758589	0.819470
1.290000	1.167180	1.347693	0.766785	0.819997
1.300000	1.180644	1.344989	0.774991	0.821308
1.310000	1.194078	1.341907	0.783214	0.823361
1.320000	1.207481	1.338455	0.791461	0.826103
1.330000	1.220846	1.334648	0.799738	0.829469
1.340000	1.234172	1.330505	0.808052	0.833385
1.350000	1.247455	1.326048	0.816407	0.837766
1.360000	1.260692	1.321297	0.824809	0.842521
1.370000	1.273880	1.316272	0.833259	0.847551
1.380000	1.287017	1.310987	0.841760	0.852755
1.390000	1.300099	1.305453	0.850314	0.858025
1.400000	1.313125	1.299676	0.858921	0.863252
1.410000	1.326092	1.293655	0.867579	0.868327
1.420000	1.338998	1.287386	0.876286	0.873138
1.430000	1.351839	1.280864	0.885040	0.877579
1.440000	1.364614	1.274084	0.893836	0.881544
1.450000	1.377320	1.267036	0.902669	0.884933
1.460000	1.389954	1.259719	0.911533	0.887649
1.470000	1.402513	1.252132	0.920420	0.889603
1.480000	1.414995	1.244277	0.929322	0.890714
1.490000	1.427398	1.236162	0.938231	0.890908
1.500000	1.439718	1.227796	0.947137	0.890120
1.510000	1.451953	1.219193	0.956030	0.888297
1.520000	1.464101	1.210370	0.964899	0.885397
1.530000	1.476160	1.201339	0.973734	0.881388
1.540000	1.488127	1.192115	0.982523	0.876250
1.550000	1.500001	1.182708	0.991255	0.869976
1.560000	1.511781	1.173128	0.999919	0.862572
1.570000	1.523463	1.163378	1.008503	0.854055
1.580000	1.535048	1.153459	1.016996	0.844455
1.590000	1.546532	1.143368	1.025389	0.833812
1.600000	1.557915	1.133101	1.033669	0.822180
1.610000	1.569193	1.122651	1.041829	0.809622
1.620000	1.580367	1.112013	1.049859	0.796210
1.630000	1.591433	1.101181	1.057751	0.782024
1.640000	1.602390	1.090153	1.065497	0.767153
1.650000	1.613235	1.078926	1.073092	0.751692
1.660000	1.623968	1.067503	1.080529	0.735740
1.670000	1.634585	1.055886	1.087805	0.719401
1.680000	1.645085	1.044081	1.094916	0.702783
1.690000	1.655466	1.032093	1.101860	0.685992
1.700000	1.665726	1.019931	1.108636	0.669138
1.710000	1.675864	1.007601	1.115243	0.652327
1.720000	1.685878	0.995108	1.121683	0.635665
1.730000	1.695766	0.982454	1.127957	0.619253
1.740000	1.705526	0.969643	1.134069	0.603188
1.750000	1.715158	0.956673	1.140023	0.587560
1.760000	1.724659	0.943542	1.145822	0.572454
1.770000	1.734028	0.930245	1.151474	0.557945
1.780000	1.743263	0.916779	1.156983	0.544101
1.790000	1.752363	0.903142	1.162358	0.530978
1.800000	1.761326	0.889329	1.167606	0.518625
1.810000	1.770149	0.875337	1.172733	0.507076
1.820000	1.778832	0.861165	1.177750	0.496356
1.830000	1.787372	0.846814	1.182663	0.486479
1.840000	1.795768	0.832287	1.187482	0.477446
1.850000	1.804017	0.817586	1.192215	0.469247
1.860000	1.812119	0.802716	1.196870	0.461860
1.870000	1.820071	0.787681	1.201455	0.455253
1.880000	1.827872	0.772481	1.205977	0.449381
1.890000	1.835520	0.757119	1.210445	0.444192
1.900000	1.843014	0.741594	1.214863	0.439622
1.910000	1.850351	0.725908	1.219239	0.435601
1.920000	1.857531	0.710059	1.223577	0.432049
1.930000	1.864552	0.694046	1.227881	0.428881
1.940000	1.871412	0.677870	1.232155	0.426004
1.950000	1.878109	0.661532	1.236402	0.423325
1.960000	1.884642	0.645032	1.240622	0.420743
1.970000	1.891009	0.628376	1.244817	0.418157
1.980000	1.897209	0.611574	1.248985	0.415466
1.990000	1.903240	0.594632	1.253125	0.412568
2.000000	1.909101	0.577564	1.257235	0.409365
2.010000	1.914791	0.560382	1.261311	0.405759
2.020000	1.920308	0.543098	1.265349	0.401658
2.030000	1.925652	0.525724	1.269343	0.396977
2.040000	1.930822	0.508273	1.273286	0.391636
2.050000	1.935818	0.490755	1.277173	0.385563
2.060000	1.940637	0.473174	1.280995	0.378695
2.070000	1.945281	0.455536	1.284744	0.370979
2.080000	1.949748	0.437842	1.288411	0.362370
2.090000	1.954038	0.420091	1.291988	0.352835
2.100000	1.958150	0.402282	1.295465	0.342353
2.110000	1.962083	0.384412	1.298832	0.330912
2.120000	1.965838	0.366476	1.302080	0.318512
2.130000	1.969412	0.348472	1.305199	0.305165
2.140000	1.972807	0.330402	1.308180	0.290893
2.150000	1.976020	0.312263	1.311014	0.275728
2.160000	1.979052	0.294060	1.313692	0.259714
2.170000	1.981901	0.275795	1.316206	0.242902
2.180000	1.984568	0.257476	1.318548	0.225354
2.190000	1.987050	0.239107	1.320711	0.207140
2.200000	1.989350	0.220698	1.322688	0.188337
2.210000	1.991464	0.202255	1.324476	0.169030
2.220000	1.993395	0.183785	1.326068	0.149306
2.230000	1.995140	0.165293	1.327461	0.129260
2.240000	1.996700	0.146781	1.328652	0.108989
2.250000	1.998075	0.128251	1.329640	0.088591
2.260000	1.999265	0.109705	1.330424	0.068168
2.270000	2.000270	0.091141	1.331004	0.047819
2.280000	2.001088	0.072557	1.331381	0.027643
2.290000	2.001721	0.053953	1.331557	0.007735
2.300000	2.002167	0.035324	1.331537	-0.011812
2.310000	2.002427	0.016671	1.331323	-0.030912
2.320000	2.002500	-0.002010	1.330920	-0.049482
2.330000	2.002387	-0.020721	1.330335	-0.067450
2.340000	2.002086	-0.039461	1.329573	-0.084749
2.350000	2.001597	-0.058230	1.328642	-0.101321
2.360000	2.000921	-0.077031	1.327550	-0.117118
2.370000	2.000057	-0.095865	1.326303	-0.132101
2.380000	1.999004	-0.114732	1.324910	-0.146243
2.390000	1.997762	-0.133631	1.323381	-0.159525
2.400000	1.996331	-0.152563	1.321723	-0.171941
2.410000	1.994711	-0.171528	1.319945	-0.183495
2.420000	1.992900	-0.190523	1.318056	-0.194201
2.430000	1.990900	-0.209543	1.316064	-0.204085
2.440000	1.988709	-0.228580	1.313977	-0.213181
2.450000	1.986328	-0.247622	1.311802	-0.221535
2.460000	1.983757	-0.266656	1.309548	-0.229199
2.470000	1.980995	-0.285663	1.307221	-0.236236
2.480000	1.978044	-0.304622	1.304825	-0.242713
2.490000	1.974903	-0.323513	1.302368	-0.248707
2.500000	1.971574	-0.342312	1.299853	-0.254295
2.510000	1.968057	-0.360994	1.297283	-0.259562
2.520000	1.964355	-0.379535	1.294662	-0.264594
2.530000	1.960467	-0.397918	1.291992	-0.269477
2.540000	1.956397	-0.416128	1.289273	-0.274299
2.550000	1.952145	-0.434155	1.286506	-0.279146
2.560000	1.947714	-0.451995	1.283690	-0.284104
2.570000	1.943106	-0.469653	1.280823	-0.289252
2.580000	1.938322	-0.487136	1.277904	-0.294667
2.590000	1.933364	-0.504453	1.274928	-0.300422
2.600000	1.928233	-0.521624	1.271894	-0.306583
2.610000	1.922932	-0.538667	1.268795	-0.313210
2.620000	1.917460	-0.555597	1.265628	-0.320357
2.630000	1.911820	-0.572429	1.262386	-0.328068
2.640000	1.906012	-0.589174	1.259064	-0.336382
2.650000	1.900037	-0.605839	1.255656	-0.345329
2.660000	1.893895	-0.622425	1.252156	-0.354931
2.670000	1.887589	-0.638927	1.248556	-0.365199
2.680000	1.881117	-0.655335	1.244850	-0.376139
2.690000	1.874482	-0.671639	1.241031	-0.387744
2.700000	1.867685	-0.687822	1.237092	-0.400002
2.710000	1.860726	-0.703870	1.233029	-0.412888
2.720000	1.853608	-0.719766	1.228833	-0.426373
2.730000	1.846331	-0.735497	1.224499	-0.440415
2.740000	1.838899	-0.751055	1.220023	-0.454968
2.750000	1.831311	-0.766433	1.215398	-0.469976
2.760000	1.823571	-0.781629	1.210622	-0.485376
2.770000	1.815679	-0.796647	1.205690	-0.501102
2.780000	1.807638	-0.811493	1.200599	-0.517080
2.790000	1.799450	-0.826176	1.195348	-0.533233
2.800000	1.791115	-0.840703	1.189934	-0.549481
2.810000	1.782636	-0.855084	1.184358	-0.565743
2.820000	1.774014	-0.869329	1.178619	-0.581933
2.830000	1.765250	-0.883444	1.172720	-0.597970
2.840000	1.756345	-0.897432	1.166661	-0.613773
2.850000	1.747302	-0.911293	1.160445	-0.629261
2.860000	1.738120	-0.925024	1.154077	-0.644357
2.870000	1.728802	-0.938620	1.147560	-0.658990
2.880000	1.719348	-0.952073	1.140899	-0.673092
2.890000	1.709761	-0.965375	1.134100	-0.686600
2.900000	1.700041	-0.978516	1.127169	-0.699458
2.910000	1.690191	-0.991488	1.120113	-0.711618
2.920000	1.680212	-1.004282	1.112939	-0.723039
2.930000	1.670106	-1.016889	1.105655	-0.733685
2.940000	1.659875	-1.029304	1.098268	-0.743530
2.950000	1.649521	-1.041522	1.090787	-0.752557
2.960000	1.639045	-1.053540	1.083220	-0.760757
2.970000	1.628450	-1.065356	1.075574	-0.768129
2.980000	1.617739	-1.076969	1.067860	-0.774679
2.990000	1.606912	-1.088378	1.060084	-0.780425
3.000000	1.595972	-1.099582	1.052254	-0.785389
3.010000	1.584921	-1.110577	1.044378	-0.789604
3.020000	1.573761	-1.121365	1.036464	-0.793109
3.030000	1.562494	-1.131944	1.028518	-0.795949
3.040000	1.551123	-1.142313	1.020547	-0.798176
3.050000	1.539649	-1.152473	1.012557	-0.799847
3.060000	1.528074	-1.162426	1.004552	-0.801026
3.070000	1.516401	-1.172175	0.996538	-0.801778
3.080000	1.504631	-1.181725	0.988518	-0.802174
3.090000	1.492767	-1.191080	0.980495	-0.802286
3.100000	1.480810	-1.200245	0.972473	-0.802186
3.110000	1.468763	-1.209226	0.964452	-0.801950
3.120000	1.456626	-1.218026	0.956434	-0.801653
3.130000	1.444403	-1.226650	0.948419	-0.801367
3.140000	1.432094	-1.235093	0.940406	-0.801164
3.150000	1.419701	-1.243356	0.932395	-0.801114
3.160000	1.407227	-1.251429	0.924383	-0.801281
3.170000	1.394674	-1.259303	0.916368	-0.801726
3.180000	1.382042	-1.266964	0.908348	-0.802505
3.190000	1.369335	-1.274399	0.900317	-0.803667
3.200000	1.356555	-1.281591	0.892273	-0.805255
3.210000	1.343704	-1.288522	0.884210	-0.807306
3.220000	1.330785	-1.295181	0.876125	-0.809845
3.230000	1.317801	-1.301554	0.868012	-0.812893
3.240000	1.304755	-1.307633	0.859865	-0.816461
3.250000	1.291650	-1.313414	0.851681	-0.820550
3.260000	1.278488	-1.318899	0.843453	-0.825155
3.270000	1.265273	-1.324093	0.835176	-0.830259
3.280000	1.252007	-1.329007	0.826846	-0.835839
3.290000	1.238693	-1.333654	0.818458	-0.841865
3.300000	1.225335	-1.338047	0.810007	-0.848297
3.310000	1.211933	-1.342203	0.801491	-0.855090
3.320000	1.198491	-1.346137	0.792904	-0.862193
3.330000	1.185011	-1.349865	0.784246	-0.869548
3.340000	1.171495	-1.353394	0.775513	-0.877095
3.350000	1.157944	-1.356728	0.766704	-0.884768
3.360000	1.144361	-1.359869	0.757817	-0.892500
3.370000	1.130747	-1.362815	0.748854	-0.900222
3.380000	1.117105	-1.365558	0.739813	-0.907863
3.390000	1.103437	-1.368090	0.730697	-0.915352
3.400000	1.089744	-1.370398	0.721507	-0.922617
3.410000	1.076030	-1.372471	0.712246	-0.929589
3.420000	1.062296	-1.374297	0.702916	-0.936201
3.430000	1.048545	-1.375867	0.693523	-0.942389
3.440000	1.034779	-1.377174	0.684070	-0.948089
3.450000	1.021002	-1.378215	0.674563	-0.953244
3.460000	1.007216	-1.378990	0.665007	-0.957803
3.470000	0.993423	-1.379504	0.655409	-0.961717
3.480000	0.979627	-1.379763	0.645775	-0.964945
3.490000	0.965829	-1.379774	0.636113	-0.967451
3.500000	0.952032	-1.379555	0.626429	-0.969208
3.510000	0.938238	-1.379119	0.616731	-0.970195
3.520000	0.924450	-1.378479	0.607027	-0.970400
3.530000	0.910669	-1.377646	0.597326	-0.969816
3.540000	0.896898	-1.376633	0.587634	-0.968448
3.550000	0.883137	-1.375448	0.577959	-0.966306
3.560000	0.869389	-1.374099	0.568310	-0.963410
3.570000	0.855656	-1.372587	0.558693	-0.959787
3.580000	0.841938	-1.370913	0.549117	-0.955471
3.590000	0.828238	-1.369074	0.539586	-0.950502
3.600000	0.814557	-1.367064	0.530109	-0.944931
3.610000	0.800897	-1.364876	0.520689	-0.938809
3.620000	0.787260	-1.362495	0.511334	-0.932195
3.630000	0.773648	-1.359904	0.502047	-0.925153
3.640000	0.760063	-1.357091	0.492832	-0.917747
3.650000	0.746507	-1.354041	0.483693	-0.910046
3.660000	0.732983	-1.350733	0.474632	-0.902119
3.670000	0.719493	-1.347152	0.465651	-0.894037
3.680000	0.706041	-1.343280	0.456752	-0.885869
3.690000	0.692629	-1.339106	0.447934	-0.877682
3.700000	0.679260	-1.334616	0.439198	-0.869541
3.710000	0.665938	-1.329801	0.430543	-0.861509
3.720000	0.652665	-1.324658	0.421967	-0.853643
3.730000	0.639446	-1.319184	0.413469	-0.845995
3.740000	0.626282	-1.313384	0.405046	-0.838613
3.750000	0.613179	-1.307264	0.396696	-0.831538
3.760000	0.600138	-1.300834	0.388414	-0.824805
3.770000	0.587163	-1.294109	0.380198	-0.818442
3.780000	0.574257	-1.287105	0.372044	-0.812470
3.790000	0.561422	-1.279840	0.363948	-0.806903
3.800000	0.548661	-1.272329	0.355905	-0.801748
3.810000	0.535976	-1.264590	0.347911	-0.797007
3.820000	0.523370	-1.256637	0.339963	-0.792672
3.830000	0.510844	-1.248481	0.332057	-0.788729
3.840000	0.498401	-1.240132	0.324188	-0.785160
3.850000	0.486042	-1.231599	0.316352	-0.781940
3.860000	0.473769	-1.222885	0.308548	-0.779037
3.870000	0.461585	-1.213997	0.300771	-0.776415
3.880000	0.449490	-1.204935	0.293019	-0.774034
3.890000	0.437487	-1.195700	0.285289	-0.771848
3.900000	0.425577	-1.186293	0.277581	-0.769810
3.910000	0.413762	-1.176713	0.269893	-0.767867
3.920000	0.402043	-1.166961	0.262224	-0.765966
3.930000	0.390423	-1.157036	0.254573	-0.764052
3.940000	0.378903	-1.146942	0.246943	-0.762069
3.950000	0.367485	-1.136681	0.239333	-0.759959
3.960000	0.356170	-1.126253	0.231744	-0.757666
3.970000	0.344960	-1.115657	0.224180	-0.755136
3.980000	0.333857	-1.104894	0.216642	-0.752316
3.990000	0.322863	-1.093964	0.209135	-0.749153
4.000000	0.311979	-1.082864	0.201661	-0.745601
4.010000	0.301206	-1.071591	0.194224	-0.741614
4.020000	0.290547	-1.060141	0.186830	-0.737154
4.030000	0.280004	-1.048509	0.179483	-0.732184
4.040000	0.269578	-1.036691	0.172188	-0.726673
4.050000	0.259271	-1.024686	0.164951	-0.720595
4.060000	0.249085	-1.012492	0.157778	-0.713931
4.070000	0.239021	-1.000112	0.150675	-0.706666
4.080000	0.229083	-0.987550	0.143647	-0.698791
4.090000	0.219271	-0.974813	0.136701	-0.690303
4.100000	0.209587	-0.961912	0.129843	-0.681206
4.110000	0.200033	-0.948861	0.123079	-0.671510
4.120000	0.190611	-0.935673	0.116415	-0.661230
4.130000	0.181320	-0.922361	0.109856	-0.650387
4.140000	0.172164	-0.908938	0.103409	-0.639010
4.150000	0.163142	-0.895421	0.097078	-0.627131
4.160000	0.154256	-0.881822	0.090868	-0.614788
4.170000	0.145506	-0.868146	0.084783	-0.602024
4.180000	0.136893	-0.854399	0.078828	-0.588887
4.190000	0.128418	-0.840580	0.073006	-0.575428
4.200000	0.120081	-0.826686	0.067321	-0.561700
4.210000	0.111884	-0.812713	0.061773	-0.547761
4.220000	0.103828	-0.798651	0.056366	-0.533670
4.230000	0.095912	-0.784492	0.051100	-0.519484
4.240000	0.088138	-0.770225	0.045976	-0.505264
4.250000	0.080508	-0.755844	0.040995	-0.491067
4.260000	0.073022	-0.741336	0.036155	-0.476952
4.270000	0.065681	-0.726696	0.031455	-0.462973
4.280000	0.058488	-0.711916	0.026895	-0.449182
4.290000	0.051443	-0.696992	0.022471	-0.435627
4.300000	0.044549	-0.681922	0.018181	-0.422351
4.310000	0.037806	-0.666706	0.014023	-0.409396
4.320000	0.031215	-0.651342	0.009992	-0.396794
4.330000	0.024779	-0.635834	0.006086	-0.384574
