Time(s)	xt(m)	vt(m/s)	xb(m)	vb(m/s)
0.000000	0.000000	0.000000	0.000000	0.000000
0.010000	0.000041	0.008104	0.000000	0.000023
0.020000	0.000162	0.016210	0.000001	0.000136
0.030000	0.000365	0.024314	0.000003	0.000401
0.040000	0.000648	0.032412	0.000009	0.000879
0.050000	0.001013	0.040501	0.000022	0.001627
0.060000	0.001458	0.048578	0.000043	0.002701
0.070000	0.001984	0.056638	0.000077	0.004149
0.080000	0.002591	0.064678	0.000128	0.006018
0.090000	0.003278	0.072699	0.000199	0.008346
0.100000	0.004045	0.080698	0.000296	0.011168
0.110000	0.004892	0.088673	0.000424	0.014511
0.120000	0.005818	0.096624	0.000588	0.018395
0.130000	0.006824	0.104550	0.000794	0.022835
0.140000	0.007909	0.112452	0.001047	0.027837
0.150000	0.009073	0.120327	0.001352	0.033401
0.160000	0.010316	0.128172	0.001717	0.039521
0.170000	0.011636	0.135984	0.002145	0.046182
0.180000	0.013035	0.143756	0.002642	0.053364
0.190000	0.014511	0.151487	0.003214	0.061038
0.200000	0.016065	0.159169	0.003864	0.069172
0.210000	0.017695	0.166795	0.004598	0.077725
0.220000	0.019401	0.174363	0.005420	0.086653
0.230000	0.021182	0.181870	0.006333	0.095906
0.240000	0.023038	0.189312	0.007339	0.105430
0.250000	0.024968	0.196689	0.008442	0.115168
0.260000	0.026971	0.204004	0.009643	0.125059
0.270000	0.029048	0.211260	0.010943	0.135040
0.280000	0.031196	0.218466	0.012344	0.145049
0.290000	0.033417	0.225630	0.013844	0.155020
0.300000	0.035709	0.232760	0.015444	0.164891
0.310000	0.038072	0.239866	0.017141	0.174597
0.320000	0.040506	0.246959	0.018935	0.184079
0.330000	0.043011	0.254047	0.020822	0.193280
0.340000	0.045587	0.261139	0.022799	0.202145
0.350000	0.048234	0.268240	0.024864	0.210624
0.360000	0.050952	0.275350	0.027011	0.218674
0.370000	0.053741	0.282474	0.029236	0.226254
0.380000	0.056601	0.289610	0.031534	0.233332
0.390000	0.059533	0.296756	0.033900	0.239881
0.400000	0.062537	0.303907	0.036330	0.245880
0.410000	0.065611	0.311057	0.038816	0.251316
0.420000	0.068758	0.318201	0.041354	0.256183
0.430000	0.071975	0.325330	0.043938	0.260480
0.440000	0.075264	0.332437	0.046562	0.264214
0.450000	0.078624	0.339516	0.049220	0.267400
0.460000	0.082054	0.346559	0.051908	0.270057
0.470000	0.085555	0.353557	0.054620	0.272211
0.480000	0.089125	0.360502	0.057351	0.273893
0.490000	0.092765	0.367388	0.060096	0.275141
0.500000	0.096473	0.374204	0.062852	0.275995
0.510000	0.100249	0.380939	0.065615	0.276501
0.520000	0.104091	0.387587	0.068381	0.276708
0.530000	0.108000	0.394140	0.071148	0.276667
0.540000	0.111974	0.400586	0.073914	0.276432
0.550000	0.116011	0.406921	0.076677	0.276056
0.560000	0.120112	0.413139	0.079435	0.275597
0.570000	0.124274	0.419238	0.082188	0.275107
0.580000	0.128496	0.425216	0.084937	0.274643
0.590000	0.132778	0.431075	0.087681	0.274257
0.600000	0.137117	0.436817	0.090423	0.273999
0.610000	0.141514	0.442449	0.093162	0.273917
0.620000	0.145966	0.447976	0.095902	0.274057
0.630000	0.150473	0.453406	0.098644	0.274459
0.640000	0.155034	0.458747	0.101392	0.275160
0.650000	0.159648	0.464006	0.104148	0.276193
0.660000	0.164314	0.469191	0.106917	0.277587
0.670000	0.169031	0.474303	0.109701	0.279362
0.680000	0.173799	0.479345	0.112505	0.281538
0.690000	0.178618	0.484314	0.115333	0.284125
0.700000	0.183485	0.489205	0.118189	0.287131
0.710000	0.188402	0.494015	0.121077	0.290555
0.720000	0.193365	0.498734	0.124002	0.294393
0.730000	0.198376	0.503356	0.126967	0.298633
0.740000	0.203432	0.507874	0.129976	0.303259
0.750000	0.208533	0.512283	0.133033	0.308249
0.760000	0.213678	0.516577	0.136142	0.313576
0.770000	0.218864	0.520753	0.139306	0.319207
0.780000	0.224092	0.524809	0.142527	0.325106
0.790000	0.229360	0.528747	0.145809	0.331233
0.800000	0.234667	0.532573	0.149152	0.337542
0.810000	0.240011	0.536289	0.152560	0.343987
0.820000	0.245392	0.539902	0.156032	0.350519
0.830000	0.250809	0.543416	0.159570	0.357085
0.840000	0.256260	0.546837	0.163174	0.363635
0.850000	0.261745	0.550166	0.166843	0.370116
0.860000	0.267263	0.553406	0.170576	0.376475
0.870000	0.272813	0.556555	0.174372	0.382662
0.880000	0.278394	0.559612	0.178228	0.388627
0.890000	0.284005	0.562573	0.182143	0.394322
0.900000	0.289645	0.565436	0.186114	0.399704
0.910000	0.295313	0.568197	0.190136	0.404730
0.920000	0.301009	0.570852	0.194207	0.409363
0.930000	0.306730	0.573399	0.198322	0.413569
0.940000	0.312476	0.575837	0.202477	0.417318
0.950000	0.318246	0.578167	0.206667	0.420587
0.960000	0.324039	0.580392	0.210887	0.423355
0.970000	0.329854	0.582518	0.215132	0.425609
0.980000	0.335689	0.584548	0.219397	0.427340
0.990000	0.341545	0.586488	0.223677	0.428545
1.000000	0.347419	0.588343	0.227967	0.429227
1.010000	0.353311	0.590120	0.232260	0.429394
1.020000	0.359221	0.591820	0.236553	0.429061
1.030000	0.365147	0.593444	0.240840	0.428246
1.040000	0.371090	0.594993	0.245116	0.426974
1.050000	0.377047	0.596465	0.249378	0.425275
1.060000	0.383019	0.597855	0.253620	0.423183
1.070000	0.389004	0.599161	0.257840	0.420735
1.080000	0.395002	0.600376	0.262034	0.417973
1.090000	0.401011	0.601497	0.266199	0.414941
1.100000	0.407031	0.602519	0.270332	0.411685
1.110000	0.413061	0.603441	0.274432	0.408254
1.120000	0.419100	0.604262	0.278497	0.404697
1.130000	0.425146	0.604982	0.282526	0.401063
1.140000	0.431199	0.605604	0.286518	0.397404
1.150000	0.437258	0.606131	0.290474	0.393768
1.160000	0.443321	0.606565	0.294394	0.390202
1.170000	0.449389	0.606911	0.298278	0.386753
1.180000	0.455459	0.607170	0.302129	0.383466
1.190000	0.461532	0.607343	0.305948	0.380380
1.200000	0.467606	0.607427	0.309738	0.377534
1.210000	0.473680	0.607419	0.313500	0.374961
1.220000	0.479754	0.607313	0.317238	0.372691
1.230000	0.485826	0.607099	0.320955	0.370750
1.240000	0.491895	0.606768	0.324654	0.369157
1.250000	0.497961	0.606311	0.328339	0.367928
1.260000	0.504021	0.605717	0.332014	0.367071
1.270000	0.510075	0.604978	0.335682	0.366591
1.280000	0.516120	0.604085	0.339347	0.366485
1.290000	0.522156	0.603034	0.343013	0.366745
1.300000	0.528180	0.601822	0.346683	0.367358
1.310000	0.534192	0.600452	0.350361	0.368305
1.320000	0.540189	0.598926	0.354050	0.369562
1.330000	0.546170	0.597250	0.357753	0.371099
1.340000	0.552133	0.595429	0.361473	0.372883
1.350000	0.558078	0.593474	0.365211	0.374876
1.360000	0.564002	0.591392	0.368971	0.377037
1.370000	0.569905	0.589189	0.372753	0.379323
1.380000	0.575786	0.586872	0.376558	0.381687
1.390000	0.581642	0.584442	0.380386	0.384081
1.400000	0.587474	0.581904	0.384239	0.386456
1.410000	0.593280	0.579259	0.388115	0.388763
1.420000	0.599059	0.576505	0.392014	0.390954
1.430000	0.604810	0.573643	0.395934	0.392979
1.440000	0.610532	0.570669	0.399873	0.394792
1.450000	0.616223	0.567582	0.403829	0.396347
1.460000	0.621883	0.564380	0.407799	0.397602
1.470000	0.627510	0.561065	0.411780	0.398517
1.480000	0.633104	0.557637	0.415768	0.399055
1.490000	0.638663	0.554099	0.419759	0.399183
1.500000	0.644185	0.550456	0.423750	0.398874
1.510000	0.649671	0.546712	0.427735	0.398104
1.520000	0.655119	0.542873	0.431711	0.396853
1.530000	0.660529	0.538945	0.435671	0.395108
1.540000	0.665898	0.534934	0.439611	0.392860
1.550000	0.671227	0.530842	0.443526	0.390108
1.560000	0.676515	0.526672	0.447412	0.386852
1.570000	0.681760	0.522425	0.451262	0.383102
1.580000	0.686963	0.518102	0.455072	0.378870
1.590000	0.692122	0.513704	0.458838	0.374176
1.600000	0.697237	0.509227	0.462554	0.369043
1.610000	0.702306	0.504669	0.466217	0.363499
1.620000	0.707330	0.500028	0.469823	0.357576
1.630000	0.712306	0.495303	0.473367	0.351311
1.640000	0.717235	0.490492	0.476848	0.344743
1.650000	0.722116	0.485594	0.480261	0.337915
1.660000	0.726947	0.480609	0.483606	0.330870
1.670000	0.731728	0.475540	0.486878	0.323656
1.680000	0.736458	0.470387	0.490078	0.316320
1.690000	0.741135	0.465151	0.493204	0.308910
1.700000	0.745760	0.459836	0.496256	0.301475
1.710000	0.750332	0.454444	0.499234	0.294061
1.720000	0.754849	0.448975	0.502138	0.286716
1.730000	0.759311	0.443432	0.504969	0.279485
1.740000	0.763717	0.437813	0.507728	0.272410
1.750000	0.768067	0.432118	0.510418	0.265532
1.760000	0.772359	0.426349	0.513039	0.258887
1.770000	0.776594	0.420502	0.515596	0.252509
1.780000	0.780769	0.414577	0.518091	0.246428
1.790000	0.784885	0.408570	0.520526	0.240669
1.800000	0.788940	0.402481	0.522905	0.235251
1.810000	0.792934	0.396311	0.525232	0.230191
1.820000	0.796866	0.390060	0.527510	0.225499
1.830000	0.800735	0.383726	0.529743	0.221180
1.840000	0.804541	0.377313	0.531935	0.217235
1.850000	0.808281	0.370820	0.534089	0.213658
1.860000	0.811957	0.364249	0.536209	0.210439
1.870000	0.815566	0.357600	0.538299	0.207563
1.880000	0.819108	0.350876	0.540362	0.205011
1.890000	0.822583	0.344079	0.542400	0.202758
1.900000	0.825990	0.337209	0.544418	0.200776
1.910000	0.829327	0.330266	0.546417	0.199033
1.920000	0.832595	0.323252	0.548399	0.197493
1.930000	0.835792	0.316165	0.550367	0.196119
1.940000	0.838918	0.309006	0.552322	0.194869
1.950000	0.841972	0.301776	0.554265	0.193700
1.960000	0.844953	0.294478	0.556196	0.192570
1.970000	0.847861	0.287114	0.558116	0.191433
1.980000	0.850695	0.279686	0.560025	0.190243
1.990000	0.853455	0.272200	0.561921	0.188957
2.000000	0.856139	0.264659	0.563803	0.187530
2.010000	0.858748	0.257068	0.565671	0.185920
2.020000	0.861280	0.249432	0.567521	0.184087
2.030000	0.863736	0.241758	0.569351	0.181992
2.040000	0.866115	0.234049	0.571160	0.179602
2.050000	0.868417	0.226310	0.572942	0.176884
2.060000	0.870642	0.218541	0.574696	0.173811
2.070000	0.872788	0.210746	0.576417	0.170360
2.080000	0.874856	0.202926	0.578102	0.166513
2.090000	0.876846	0.195082	0.579746	0.162254
2.100000	0.878758	0.187212	0.581346	0.157576
2.110000	0.880591	0.179316	0.582896	0.152473
2.120000	0.882344	0.171392	0.584394	0.146946
2.130000	0.884018	0.163440	0.585834	0.141000
2.140000	0.885613	0.155461	0.587212	0.134647
2.150000	0.887127	0.147453	0.588526	0.127901
2.160000	0.888562	0.139418	0.589769	0.120781
2.170000	0.889916	0.131359	0.590940	0.113312
2.180000	0.891189	0.123278	0.592034	0.105521
2.190000	0.892381	0.115176	0.593049	0.097440
2.200000	0.893492	0.107056	0.593982	0.089103
2.210000	0.894522	0.098920	0.594831	0.080548
2.220000	0.895471	0.090770	0.595593	0.071813
2.230000	0.896338	0.082609	0.596267	0.062942
2.240000	0.897123	0.074438	0.596851	0.053977
2.250000	0.897826	0.066256	0.597346	0.044963
2.260000	0.898448	0.058064	0.597750	0.035942
2.270000	0.898988	0.049862	0.598065	0.026961
2.280000	0.899445	0.041648	0.598290	0.018061
2.290000	0.899821	0.033424	0.598427	0.009285
2.300000	0.900114	0.025186	0.598476	0.000674
2.310000	0.900324	0.016937	0.598441	-0.007735
2.320000	0.900452	0.008672	0.598322	-0.015906
2.330000	0.900498	0.000394	0.598123	-0.023806
2.340000	0.900460	-0.007898	0.597847	-0.031408
2.350000	0.900340	-0.016206	0.597496	-0.038686
2.360000	0.900136	-0.024529	0.597075	-0.045620
2.370000	0.899849	-0.032867	0.596585	-0.052193
2.380000	0.899479	-0.041219	0.596032	-0.058394
2.390000	0.899025	-0.049587	0.595419	-0.064215
2.400000	0.898487	-0.057969	0.594749	-0.069655
2.410000	0.897865	-0.066366	0.594027	-0.074715
2.420000	0.897159	-0.074775	0.593256	-0.079403
2.430000	0.896370	-0.083194	0.592440	-0.083730
2.440000	0.895496	-0.091620	0.591582	-0.087713
2.450000	0.894537	-0.100049	0.590687	-0.091372
2.460000	0.893495	-0.108477	0.589756	-0.094731
2.470000	0.892368	-0.116894	0.588793	-0.097818
2.480000	0.891157	-0.125293	0.587800	-0.100663
2.490000	0.889862	-0.133666	0.586780	-0.103300
2.500000	0.888484	-0.142004	0.585735	-0.105764
2.510000	0.887022	-0.150297	0.584666	-0.108092
2.520000	0.885478	-0.158537	0.583573	-0.110324
2.530000	0.883851	-0.166717	0.582459	-0.112496
2.540000	0.882144	-0.174832	0.581324	-0.114649
2.550000	0.880355	-0.182877	0.580166	-0.116821
2.560000	0.878486	-0.190848	0.578987	-0.119050
2.570000	0.876538	-0.198748	0.577785	-0.121370
2.580000	0.874512	-0.206581	0.576559	-0.123817
2.590000	0.872407	-0.214346	0.575308	-0.126423
2.600000	0.870225	-0.222052	0.574030	-0.129217
2.610000	0.867966	-0.229703	0.572723	-0.132225
2.620000	0.865631	-0.237305	0.571385	-0.135471
2.630000	0.863220	-0.244863	0.570013	-0.138976
2.640000	0.860734	-0.252379	0.568604	-0.142755
2.650000	0.858173	-0.259856	0.567157	-0.146821
2.660000	0.855537	-0.267294	0.565667	-0.151184
2.670000	0.852827	-0.274691	0.564132	-0.155849
2.680000	0.850043	-0.282044	0.562549	-0.160816
2.690000	0.847186	-0.289347	0.560915	-0.166082
2.700000	0.844256	-0.296596	0.559226	-0.171641
2.710000	0.841255	-0.303786	0.557481	-0.177481
2.720000	0.838181	-0.310911	0.555676	-0.183587
2.730000	0.835037	-0.317966	0.553808	-0.189941
2.740000	0.831822	-0.324946	0.551876	-0.196521
2.750000	0.828538	-0.331850	0.549877	-0.203301
2.760000	0.825185	-0.338677	0.547810	-0.210254
2.770000	0.821765	-0.345429	0.545672	-0.217347
2.780000	0.818277	-0.352107	0.543462	-0.224549
2.790000	0.814723	-0.358715	0.541181	-0.231824
2.800000	0.811103	-0.365258	0.538826	-0.239136
2.810000	0.807418	-0.371737	0.536398	-0.246449
2.820000	0.803668	-0.378156	0.533897	-0.253724
2.830000	0.799855	-0.384516	0.531324	-0.260926
2.840000	0.795978	-0.390820	0.528679	-0.268017
2.850000	0.792039	-0.397068	0.525964	-0.274962
2.860000	0.788037	-0.403258	0.523180	-0.281727
2.870000	0.783974	-0.409390	0.520330	-0.288280
2.880000	0.779849	-0.415459	0.517415	-0.294590
2.890000	0.775665	-0.421462	0.514439	-0.300631
2.900000	0.771420	-0.427397	0.511404	-0.306378
2.910000	0.767117	-0.433261	0.508312	-0.311809
2.920000	0.762755	-0.439049	0.505169	-0.316907
2.930000	0.758336	-0.444759	0.501976	-0.321656
2.940000	0.753860	-0.450391	0.498737	-0.326047
2.950000	0.749329	-0.455942	0.495456	-0.330071
2.960000	0.744742	-0.461409	0.492137	-0.333726
2.970000	0.740101	-0.466792	0.488783	-0.337011
2.980000	0.735406	-0.472091	0.485397	-0.339932
2.990000	0.730659	-0.477304	0.481985	-0.342497
3.000000	0.725860	-0.482431	0.478549	-0.344716
3.010000	0.721011	-0.487469	0.475092	-0.346606
3.020000	0.716111	-0.492420	0.471618	-0.348183
3.030000	0.711163	-0.497282	0.468129	-0.349470
3.040000	0.706166	-0.502055	0.464629	-0.350492
3.050000	0.701122	-0.506739	0.461120	-0.351273
3.060000	0.696032	-0.511334	0.457604	-0.351844
3.070000	0.690896	-0.515839	0.454084	-0.352233
3.080000	0.685715	-0.520257	0.450560	-0.352473
3.090000	0.680491	-0.524588	0.447035	-0.352597
3.100000	0.675224	-0.528834	0.443509	-0.352637
3.110000	0.669914	-0.532995	0.439982	-0.352628
3.120000	0.664564	-0.537074	0.436456	-0.352601
3.130000	0.659173	-0.541070	0.432930	-0.352591
3.140000	0.653743	-0.544983	0.429404	-0.352628
3.150000	0.648274	-0.548812	0.425877	-0.352744
3.160000	0.642767	-0.552554	0.422349	-0.352965
3.170000	0.637223	-0.556204	0.418818	-0.353320
3.180000	0.631643	-0.559757	0.415282	-0.353831
3.190000	0.626028	-0.563209	0.411740	-0.354521
3.200000	0.620379	-0.566552	0.408191	-0.355406
3.210000	0.614698	-0.569781	0.404632	-0.356502
3.220000	0.608984	-0.572891	0.401060	-0.357820
3.230000	0.603240	-0.575878	0.397474	-0.359368
3.240000	0.597467	-0.578738	0.393872	-0.361149
3.250000	0.591666	-0.581470	0.390251	-0.363163
3.260000	0.585838	-0.584074	0.386608	-0.365406
3.270000	0.579985	-0.586553	0.382942	-0.367870
3.280000	0.574107	-0.588911	0.379250	-0.370544
3.290000	0.568207	-0.591150	0.375530	-0.373413
3.300000	0.562285	-0.593276	0.371781	-0.376459
3.310000	0.556342	-0.595296	0.368001	-0.379660
3.320000	0.550379	-0.597216	0.364187	-0.382994
3.330000	0.544398	-0.599039	0.360340	-0.386433
3.340000	0.538399	-0.600770	0.356458	-0.389951
3.350000	0.532383	-0.602410	0.352541	-0.393518
3.360000	0.526351	-0.603961	0.348588	-0.397102
3.370000	0.520304	-0.605421	0.344599	-0.400673
3.380000	0.514243	-0.606788	0.340575	-0.404198
3.390000	0.508168	-0.608059	0.336515	-0.407647
3.400000	0.502082	-0.609229	0.332422	-0.410986
3.410000	0.495984	-0.610295	0.328296	-0.414185
3.420000	0.489876	-0.611254	0.324139	-0.417214
3.430000	0.483759	-0.612103	0.319953	-0.420044
3.440000	0.477635	-0.612839	0.315739	-0.422648
3.450000	0.471503	-0.613461	0.311500	-0.425001
3.460000	0.465366	-0.613969	0.307240	-0.427079
3.470000	0.459224	-0.614366	0.302960	-0.428863
3.480000	0.453079	-0.614653	0.298664	-0.430336
3.490000	0.446931	-0.614834	0.294354	-0.431482
3.500000	0.440782	-0.614912	0.290035	-0.432289
3.510000	0.434633	-0.614894	0.285710	-0.432750
3.520000	0.428485	-0.614785	0.281381	-0.432861
3.530000	0.422338	-0.614587	0.277053	-0.432620
3.540000	0.416193	-0.614306	0.272730	-0.432029
3.550000	0.410052	-0.613945	0.268414	-0.431096
3.560000	0.403915	-0.613505	0.264109	-0.429828
3.570000	0.397782	-0.612989	0.259819	-0.428241
3.580000	0.391655	-0.612394	0.255545	-0.426349
3.590000	0.385535	-0.611722	0.251292	-0.424172
3.600000	0.379421	-0.610969	0.247063	-0.421732
3.610000	0.373315	-0.610130	0.242859	-0.419052
3.620000	0.367219	-0.609202	0.238682	-0.416161
3.630000	0.361132	-0.608179	0.234536	-0.413086
3.640000	0.355056	-0.607056	0.230421	-0.409857
3.650000	0.348991	-0.605828	0.226339	-0.406504
3.660000	0.342939	-0.604489	0.222291	-0.403058
3.670000	0.336902	-0.603029	0.218278	-0.399551
3.680000	0.330879	-0.601443	0.214301	-0.396013
3.690000	0.324873	-0.599726	0.210358	-0.392474
3.700000	0.318885	-0.597874	0.206451	-0.388963
3.710000	0.312916	-0.595886	0.202579	-0.385508
3.720000	0.306968	-0.593758	0.198741	-0.382133
3.730000	0.301041	-0.591491	0.194936	-0.378863
3.740000	0.295138	-0.589084	0.191163	-0.375717
3.750000	0.289260	-0.586540	0.187421	-0.372714
3.760000	0.283408	-0.583863	0.183708	-0.369868
3.770000	0.277583	-0.581058	0.180023	-0.367193
3.780000	0.271787	-0.578131	0.176364	-0.364697
3.790000	0.266021	-0.575087	0.172728	-0.362386
3.800000	0.260286	-0.571932	0.169115	-0.360262
3.810000	0.254583	-0.568673	0.165523	-0.358325
3.820000	0.248913	-0.565315	0.161948	-0.356572
3.830000	0.243277	-0.561863	0.158391	-0.354996
3.840000	0.237676	-0.558320	0.154848	-0.353587
3.850000	0.232111	-0.554689	0.151318	-0.352334
3.860000	0.226582	-0.550973	0.147801	-0.351221
3.870000	0.221092	-0.547173	0.144293	-0.350233
3.880000	0.215639	-0.543289	0.140796	-0.349349
3.890000	0.210226	-0.539323	0.137306	-0.348549
3.900000	0.204853	-0.535275	0.133824	-0.347810
3.910000	0.199521	-0.531144	0.130350	-0.347109
3.920000	0.194230	-0.526931	0.126882	-0.346420
3.930000	0.188983	-0.522637	0.123421	-0.345719
3.940000	0.183778	-0.518264	0.119968	-0.344978
3.950000	0.178618	-0.513813	0.116522	-0.344174
3.960000	0.173502	-0.509285	0.113085	-0.343278
3.970000	0.168432	-0.504679	0.109657	-0.342267
3.980000	0.163409	-0.499996	0.106240	-0.341117
3.990000	0.158432	-0.495236	0.102835	-0.339803
4.000000	0.153504	-0.490398	0.099444	-0.338306
4.010000	0.148625	-0.485481	0.096070	-0.336604
4.020000	0.143795	-0.480487	0.092713	-0.334680
4.030000	0.139015	-0.475412	0.089377	-0.332518
4.040000	0.134287	-0.470255	0.086064	-0.330105
4.050000	0.129610	-0.465016	0.082776	-0.327429
4.060000	0.124987	-0.459695	0.079516	-0.324482
4.070000	0.120417	-0.454294	0.076287	-0.321258
4.080000	0.115901	-0.448813	0.073092	-0.317755
4.090000	0.111441	-0.443255	0.069933	-0.313972
4.100000	0.107036	-0.437624	0.066813	-0.309911
4.110000	0.102689	-0.431927	0.063735	-0.305577
4.120000	0.098398	-0.426165	0.060702	-0.300980
4.130000	0.094165	-0.420345	0.057717	-0.296129
4.140000	0.089991	-0.414472	0.054781	-0.291038
4.150000	0.085876	-0.408552	0.051897	-0.285723
4.160000	0.081820	-0.402588	0.049067	-0.280202
4.170000	0.077825	-0.396581	0.046293	-0.274494
4.180000	0.073889	-0.390535	0.043578	-0.268622
4.190000	0.070014	-0.384448	0.040921	-0.262610
4.200000	0.066200	-0.378320	0.038326	-0.256483
4.210000	0.062448	-0.372151	0.035792	-0.250265
4.220000	0.058757	-0.365936	0.033321	-0.243985
4.230000	0.055129	-0.359671	0.030912	-0.237668
4.240000	0.051564	-0.353355	0.028567	-0.231341
4.250000	0.048062	-0.346982	0.026286	-0.225030
4.260000	0.044625	-0.340550	0.024067	-0.218762
4.270000	0.041251	-0.334057	0.021910	-0.212559
4.280000	0.037944	-0.327502	0.019815	-0.206447
4.290000	0.034702	-0.320880	0.017781	-0.200445
4.300000	0.031526	-0.314191	0.015806	-0.194573
4.310000	0.028418	-0.307437	0.013889	-0.188848
4.320000	0.025378	-0.300617	0.012028	-0.183285
4.330000	0.022406	-0.293730	0.010223	-0.177897
