Time(s)	xt(m)	vt(m/s)	xb(m)	vb(m/s)
0.000000	0.000000	0.000000	0.000000	0.000000
0.010000	0.000065	0.013071	0.000000	0.000038
0.020000	0.000261	0.026148	0.000001	0.000219
0.030000	0.000588	0.039222	0.000005	0.000647
0.040000	0.001046	0.052290	0.000015	0.001417
0.050000	0.001634	0.065345	0.000035	0.002625
0.060000	0.002353	0.078381	0.000070	0.004357
0.070000	0.003202	0.091393	0.000124	0.006694
0.080000	0.004180	0.104374	0.000206	0.009709
0.090000	0.005289	0.117323	0.000321	0.013466
0.100000	0.006527	0.130239	0.000478	0.018019
0.110000	0.007894	0.143119	0.000684	0.023413
0.120000	0.009389	0.155962	0.000949	0.029681
0.130000	0.011013	0.168770	0.001281	0.036846
0.140000	0.012764	0.181539	0.001689	0.044919
0.150000	0.014643	0.194267	0.002182	0.053901
0.160000	0.016650	0.206949	0.002770	0.063779
0.170000	0.018782	0.219581	0.003461	0.074532
0.180000	0.021041	0.232152	0.004263	0.086125
0.190000	0.023425	0.244654	0.005186	0.098515
0.200000	0.025934	0.257079	0.006236	0.111648
0.210000	0.028566	0.269414	0.007421	0.125459
0.220000	0.031322	0.281650	0.008747	0.139876
0.230000	0.034199	0.293781	0.010220	0.154821
0.240000	0.037197	0.305805	0.011845	0.170204
0.250000	0.040315	0.317722	0.013626	0.185933
0.260000	0.043551	0.329535	0.015565	0.201912
0.270000	0.046905	0.341252	0.017664	0.218038
0.280000	0.050376	0.352887	0.019925	0.234208
0.290000	0.053963	0.364452	0.022348	0.250320
0.300000	0.057665	0.375963	0.024931	0.266269
0.310000	0.061482	0.387439	0.027673	0.281954
0.320000	0.065413	0.398896	0.030569	0.297278
0.330000	0.069460	0.410349	0.033617	0.312147
0.340000	0.073620	0.421813	0.036810	0.326475
0.350000	0.077896	0.433298	0.040144	0.340181
0.360000	0.082286	0.444808	0.043612	0.353193
0.370000	0.086792	0.456345	0.047206	0.365448
0.380000	0.091413	0.467907	0.050918	0.376892
0.390000	0.096150	0.479488	0.054741	0.387482
0.400000	0.101003	0.491084	0.058665	0.397186
0.410000	0.105972	0.502685	0.062681	0.405981
0.420000	0.111057	0.514279	0.066781	0.413858
0.430000	0.116258	0.525852	0.070955	0.420818
0.440000	0.121574	0.537393	0.075195	0.426871
0.450000	0.127005	0.548889	0.079490	0.432039
0.460000	0.132551	0.560326	0.083832	0.436355
0.470000	0.138212	0.571691	0.088214	0.439862
0.480000	0.143985	0.582971	0.092627	0.442610
0.490000	0.149871	0.594149	0.097064	0.444659
0.500000	0.155868	0.605209	0.101518	0.446075
0.510000	0.161974	0.616139	0.105984	0.446932
0.520000	0.168190	0.626922	0.110455	0.447308
0.530000	0.174512	0.637542	0.114929	0.447287
0.540000	0.180940	0.647985	0.119400	0.446953
0.550000	0.187471	0.658240	0.123867	0.446396
0.560000	0.194104	0.668299	0.128327	0.445704
0.570000	0.200837	0.678158	0.132781	0.444965
0.580000	0.207667	0.687814	0.137227	0.444267
0.590000	0.214592	0.697272	0.141667	0.443694
0.600000	0.221612	0.706538	0.146101	0.443328
0.610000	0.228723	0.715620	0.150534	0.443245
0.620000	0.235923	0.724532	0.154967	0.443517
0.630000	0.243213	0.733288	0.159406	0.444210
0.640000	0.250589	0.741901	0.163853	0.445383
0.650000	0.258050	0.750385	0.168315	0.447088
0.660000	0.265596	0.758750	0.172797	0.449369
0.670000	0.273225	0.767003	0.177305	0.452263
0.680000	0.280936	0.775145	0.181844	0.455797
0.690000	0.288727	0.783174	0.186423	0.459991
0.700000	0.296599	0.791083	0.191046	0.464854
0.710000	0.304549	0.798862	0.195722	0.470388
0.720000	0.312576	0.806501	0.200456	0.476584
0.730000	0.320678	0.813986	0.205256	0.483425
0.740000	0.328855	0.821303	0.210127	0.490884
0.750000	0.337104	0.828442	0.215075	0.498925
0.760000	0.345423	0.835393	0.220107	0.507507
0.770000	0.353811	0.842150	0.225227	0.516576
0.780000	0.362265	0.848714	0.230440	0.526073
0.790000	0.370784	0.855088	0.235750	0.535935
0.800000	0.379366	0.861275	0.241160	0.546089
0.810000	0.388009	0.867285	0.246672	0.556461
0.820000	0.396712	0.873126	0.252290	0.566970
0.830000	0.405471	0.878807	0.258012	0.577535
0.840000	0.414287	0.884337	0.263840	0.588073
0.850000	0.423158	0.889720	0.269773	0.598498
0.860000	0.432081	0.894958	0.275809	0.608729
0.870000	0.441056	0.900051	0.281947	0.618682
0.880000	0.450082	0.904995	0.288182	0.628278
0.890000	0.459156	0.909786	0.294511	0.637441
0.900000	0.468277	0.914416	0.300929	0.646099
0.910000	0.477443	0.918877	0.307431	0.654187
0.920000	0.486654	0.923163	0.314011	0.661643
0.930000	0.495906	0.927271	0.320662	0.668412
0.940000	0.505199	0.931198	0.327376	0.674449
0.950000	0.514529	0.934947	0.334148	0.679713
0.960000	0.523897	0.938523	0.340968	0.684172
0.970000	0.533299	0.941933	0.347829	0.687805
0.980000	0.542735	0.945186	0.354721	0.690598
0.990000	0.552203	0.948293	0.361638	0.692545
1.000000	0.561700	0.951263	0.368569	0.693650
1.010000	0.571227	0.954105	0.375508	0.693927
1.020000	0.580782	0.956823	0.382445	0.693398
1.030000	0.590363	0.959423	0.389373	0.692095
1.040000	0.599970	0.961902	0.396285	0.690056
1.050000	0.609601	0.964258	0.403172	0.687328
1.060000	0.619255	0.966484	0.410029	0.683967
1.070000	0.628930	0.968575	0.416850	0.680032
1.080000	0.638626	0.970521	0.423628	0.675591
1.090000	0.648340	0.972313	0.430360	0.670713
1.100000	0.658072	0.973947	0.437041	0.665475
1.110000	0.667819	0.975418	0.443669	0.659952
1.120000	0.677580	0.976726	0.450240	0.654226
1.130000	0.687353	0.977872	0.456753	0.648376
1.140000	0.697136	0.978859	0.463207	0.642482
1.150000	0.706929	0.979695	0.469602	0.636622
1.160000	0.716730	0.980385	0.475940	0.630875
1.170000	0.726537	0.980937	0.482221	0.625315
1.180000	0.736348	0.981353	0.488447	0.620013
1.190000	0.746163	0.981635	0.494622	0.615034
1.200000	0.755980	0.981778	0.500749	0.610438
1.210000	0.765798	0.981776	0.506832	0.606283
1.220000	0.775615	0.981620	0.512876	0.602615
1.230000	0.785430	0.981294	0.518886	0.599474
1.240000	0.795241	0.980782	0.524867	0.596895
1.250000	0.805045	0.980064	0.530826	0.594900
1.260000	0.814841	0.979121	0.536768	0.593507
1.270000	0.824627	0.977940	0.542698	0.592719
1.280000	0.834399	0.976508	0.548624	0.592536
1.290000	0.844156	0.974815	0.554551	0.592943
1.300000	0.853895	0.972856	0.560485	0.593920
1.310000	0.863612	0.970634	0.566431	0.595436
1.320000	0.873306	0.968156	0.572395	0.597451
1.330000	0.882974	0.965431	0.578381	0.599918
1.340000	0.892614	0.962471	0.584395	0.602784
1.350000	0.902223	0.959288	0.590438	0.605988
1.360000	0.911799	0.955895	0.596515	0.609463
1.370000	0.921340	0.952306	0.602628	0.613139
1.380000	0.930845	0.948530	0.608779	0.616940
1.390000	0.940310	0.944576	0.614967	0.620790
1.400000	0.949736	0.940445	0.621194	0.624609
1.410000	0.959119	0.936141	0.627459	0.628318
1.420000	0.968458	0.931661	0.633760	0.631838
1.430000	0.977751	0.927003	0.640095	0.635089
1.440000	0.986997	0.922161	0.646461	0.637997
1.450000	0.996194	0.917131	0.652853	0.640489
1.460000	1.005339	0.911914	0.659269	0.642494
1.470000	1.014432	0.906509	0.665702	0.643949
1.480000	1.023469	0.900916	0.672146	0.644795
1.490000	1.032449	0.895142	0.678595	0.644978
1.500000	1.041371	0.889195	0.685043	0.644453
1.510000	1.050233	0.883082	0.691482	0.643180
1.520000	1.059032	0.876814	0.697904	0.641130
1.530000	1.067768	0.870398	0.704302	0.638280
1.540000	1.076440	0.863844	0.710667	0.634617
1.550000	1.085045	0.857160	0.716991	0.630134
1.560000	1.093583	0.850351	0.723267	0.624837
1.570000	1.102052	0.843420	0.729485	0.618738
1.580000	1.110451	0.836367	0.735639	0.611860
1.590000	1.118778	0.829190	0.741720	0.604231
1.600000	1.127034	0.821886	0.747721	0.595890
1.610000	1.135216	0.814452	0.753636	0.586883
1.620000	1.143323	0.806883	0.759457	0.577263
1.630000	1.151353	0.799174	0.765179	0.567087
1.640000	1.159306	0.791325	0.770797	0.556419
1.650000	1.167179	0.783335	0.776306	0.545328
1.660000	1.174972	0.775206	0.781702	0.533885
1.670000	1.182683	0.766937	0.786983	0.522167
1.680000	1.190310	0.758532	0.792145	0.510250
1.690000	1.197853	0.749996	0.797187	0.498212
1.700000	1.205310	0.741331	0.802109	0.486131
1.710000	1.212679	0.732543	0.806910	0.474084
1.720000	1.219960	0.723632	0.811591	0.462147
1.730000	1.227151	0.714602	0.816154	0.450393
1.740000	1.234252	0.705454	0.820600	0.438891
1.750000	1.241260	0.696186	0.824933	0.427707
1.760000	1.248175	0.686797	0.829155	0.416900
1.770000	1.254996	0.677285	0.833272	0.406526
1.780000	1.261720	0.667648	0.837287	0.396631
1.790000	1.268348	0.657881	0.841206	0.387257
1.800000	1.274877	0.647984	0.845034	0.378437
1.810000	1.281307	0.637957	0.848777	0.370196
1.820000	1.287636	0.627799	0.852440	0.362552
1.830000	1.293863	0.617508	0.856030	0.355513
1.840000	1.299986	0.607088	0.859553	0.349081
1.850000	1.306004	0.596541	0.863014	0.343247
1.860000	1.311916	0.585872	0.866419	0.337995
1.870000	1.317721	0.575080	0.869775	0.333300
1.880000	1.323418	0.564166	0.873087	0.329132
1.890000	1.329004	0.553133	0.876360	0.325451
1.900000	1.334480	0.541983	0.879598	0.322211
1.910000	1.339843	0.530715	0.882805	0.319361
1.920000	1.345094	0.519329	0.885986	0.316844
1.930000	1.350230	0.507827	0.889143	0.314597
1.940000	1.355250	0.496208	0.892279	0.312555
1.950000	1.360153	0.484474	0.895395	0.310649
1.960000	1.364939	0.472628	0.898492	0.308806
1.970000	1.369606	0.460673	0.901571	0.306956
1.980000	1.374152	0.448613	0.904631	0.305024
1.990000	1.378577	0.436455	0.907671	0.302938
2.000000	1.382881	0.424207	0.910689	0.300626
2.010000	1.387061	0.411879	0.913682	0.298021
2.020000	1.391118	0.399479	0.916648	0.295055
2.030000	1.395051	0.387016	0.919582	0.291668
2.040000	1.398858	0.374497	0.922480	0.287802
2.050000	1.402540	0.361928	0.925336	0.283407
2.060000	1.406097	0.349313	0.928146	0.278438
2.070000	1.409527	0.336657	0.930903	0.272857
2.080000	1.412830	0.323960	0.933601	0.266633
2.090000	1.416006	0.311221	0.936233	0.259743
2.100000	1.419054	0.298440	0.938793	0.252171
2.110000	1.421974	0.285617	0.941274	0.243910
2.120000	1.424766	0.272749	0.943669	0.234962
2.130000	1.427429	0.259836	0.945971	0.225334
2.140000	1.429963	0.246876	0.948174	0.215043
2.150000	1.432367	0.233869	0.950270	0.204113
2.160000	1.434640	0.220817	0.952254	0.192576
2.170000	1.436783	0.207725	0.954120	0.180470
2.180000	1.438794	0.194595	0.955862	0.167840
2.190000	1.440675	0.181432	0.957475	0.154735
2.200000	1.442423	0.168239	0.958955	0.141214
2.210000	1.444039	0.155021	0.960298	0.127334
2.220000	1.445523	0.141781	0.961501	0.113163
2.230000	1.446875	0.128522	0.962561	0.098765
2.240000	1.448094	0.115248	0.963476	0.084212
2.250000	1.449180	0.101959	0.964245	0.069576
2.260000	1.450133	0.088656	0.964867	0.054926
2.270000	1.450953	0.075338	0.965343	0.040337
2.280000	1.451639	0.062003	0.965674	0.025877
2.290000	1.452193	0.048650	0.965861	0.011616
2.300000	1.452612	0.035279	0.965907	-0.002381
2.310000	1.452898	0.021887	0.965815	-0.016051
2.320000	1.453050	0.008473	0.965588	-0.029338
2.330000	1.453068	-0.004965	0.965230	-0.042188
2.340000	1.452951	-0.018424	0.964746	-0.054554
2.350000	1.452699	-0.031907	0.964140	-0.066396
2.360000	1.452313	-0.045414	0.963419	-0.077681
2.370000	1.451791	-0.058945	0.962589	-0.088380
2.380000	1.451134	-0.072499	0.961654	-0.098474
2.390000	1.450341	-0.086077	0.960621	-0.107953
2.400000	1.449412	-0.099680	0.959497	-0.116811
2.410000	1.448347	-0.113305	0.958287	-0.125052
2.420000	1.447146	-0.126951	0.956998	-0.132688
2.430000	1.445808	-0.140614	0.955635	-0.139736
2.440000	1.444333	-0.154289	0.954205	-0.146224
2.450000	1.442722	-0.167967	0.952713	-0.152183
2.460000	1.440974	-0.181640	0.951163	-0.157652
2.470000	1.439089	-0.195298	0.949561	-0.162677
2.480000	1.437068	-0.208926	0.947911	-0.167306
2.490000	1.434911	-0.222509	0.946216	-0.171595
2.500000	1.432618	-0.236029	0.944480	-0.175599
2.510000	1.430191	-0.249473	0.942705	-0.179380
2.520000	1.427629	-0.262826	0.940893	-0.182999
2.530000	1.424934	-0.276076	0.939045	-0.186519
2.540000	1.422108	-0.289212	0.937163	-0.190003
2.550000	1.419151	-0.302229	0.935245	-0.193514
2.560000	1.416064	-0.315122	0.933292	-0.197111
2.570000	1.412849	-0.327894	0.931302	-0.200854
2.580000	1.409506	-0.340550	0.929274	-0.204798
2.590000	1.406038	-0.353095	0.927205	-0.208995
2.600000	1.402445	-0.365539	0.925093	-0.213492
2.610000	1.398727	-0.377893	0.922934	-0.218332
2.620000	1.394887	-0.390168	0.920725	-0.223554
2.630000	1.390924	-0.402371	0.918462	-0.229190
2.640000	1.386840	-0.414510	0.916140	-0.235268
2.650000	1.382634	-0.426586	0.913755	-0.241808
2.660000	1.378308	-0.438600	0.911302	-0.248825
2.670000	1.373863	-0.450551	0.908777	-0.256327
2.680000	1.369298	-0.462433	0.906174	-0.264318
2.690000	1.364614	-0.474236	0.903489	-0.272791
2.700000	1.359813	-0.485952	0.900717	-0.281736
2.710000	1.354895	-0.497571	0.897853	-0.291137
2.720000	1.349862	-0.509082	0.894893	-0.300968
2.730000	1.344714	-0.520478	0.891832	-0.311201
2.740000	1.339453	-0.531751	0.888667	-0.321800
2.750000	1.334080	-0.542901	0.885395	-0.332725
2.760000	1.328595	-0.553924	0.882012	-0.343930
2.770000	1.323002	-0.564822	0.878516	-0.355366
2.780000	1.317299	-0.575598	0.874904	-0.366979
2.790000	1.311490	-0.586259	0.871176	-0.378713
2.800000	1.305575	-0.596811	0.867330	-0.390510
2.810000	1.299554	-0.607259	0.863365	-0.402311
2.820000	1.293430	-0.617609	0.859284	-0.414055
2.830000	1.287202	-0.627866	0.855085	-0.425682
2.840000	1.280873	-0.638032	0.850771	-0.437134
2.850000	1.274442	-0.648106	0.846343	-0.448352
2.860000	1.267911	-0.658088	0.841804	-0.459282
2.870000	1.261280	-0.667972	0.837158	-0.469871
2.880000	1.254552	-0.677754	0.832408	-0.480071
2.890000	1.247726	-0.687429	0.827558	-0.489838
2.900000	1.240804	-0.696993	0.822613	-0.499131
2.910000	1.233786	-0.706437	0.817577	-0.507915
2.920000	1.226675	-0.715758	0.812457	-0.516162
2.930000	1.219472	-0.724950	0.807256	-0.523847
2.940000	1.212177	-0.734011	0.801982	-0.530952
2.950000	1.204792	-0.742937	0.796639	-0.537464
2.960000	1.197318	-0.751724	0.791234	-0.543379
2.970000	1.189758	-0.760373	0.785773	-0.548696
2.980000	1.182111	-0.768880	0.780262	-0.553423
2.990000	1.174381	-0.777246	0.774707	-0.557571
3.000000	1.166567	-0.785468	0.769113	-0.561158
3.010000	1.158672	-0.793545	0.763486	-0.564209
3.020000	1.150697	-0.801478	0.757830	-0.566753
3.030000	1.142643	-0.809265	0.752152	-0.568824
3.040000	1.134512	-0.816905	0.746455	-0.570460
3.050000	1.126305	-0.824397	0.740744	-0.571704
3.060000	1.118024	-0.831744	0.735022	-0.572600
3.070000	1.109671	-0.838946	0.729293	-0.573199
3.080000	1.101246	-0.846006	0.723559	-0.573551
3.090000	1.092751	-0.852925	0.717823	-0.573709
3.100000	1.084188	-0.859706	0.712086	-0.573725
3.110000	1.075557	-0.866353	0.706349	-0.573655
3.120000	1.066861	-0.872867	0.700613	-0.573552
3.130000	1.058100	-0.879250	0.694877	-0.573468
3.140000	1.049277	-0.885501	0.689143	-0.573456
3.150000	1.040391	-0.891616	0.683408	-0.573565
3.160000	1.031445	-0.897590	0.677671	-0.573840
3.170000	1.022440	-0.903418	0.671930	-0.574326
3.180000	1.013377	-0.909093	0.666184	-0.575061
3.190000	1.004258	-0.914603	0.660428	-0.576080
3.200000	0.995085	-0.919937	0.654661	-0.577413
3.210000	0.985860	-0.925085	0.648879	-0.579084
3.220000	0.976584	-0.930039	0.643078	-0.581113
3.230000	0.967260	-0.934791	0.637255	-0.583512
3.240000	0.957889	-0.939336	0.631407	-0.586288
3.250000	0.948474	-0.943670	0.625528	-0.589440
3.260000	0.939017	-0.947794	0.619617	-0.592964
3.270000	0.929519	-0.951712	0.613668	-0.596847
3.280000	0.919983	-0.955430	0.607679	-0.601071
3.290000	0.910411	-0.958959	0.601646	-0.605612
3.300000	0.900804	-0.962306	0.595566	-0.610442
3.310000	0.891165	-0.965480	0.589436	-0.615526
3.320000	0.881495	-0.968491	0.583254	-0.620828
3.330000	0.871796	-0.971348	0.577019	-0.626306
3.340000	0.862069	-0.974060	0.570728	-0.631914
3.350000	0.852315	-0.976626	0.564380	-0.637605
3.360000	0.842537	-0.979049	0.557975	-0.643329
3.370000	0.832735	-0.981328	0.551514	-0.649036
3.380000	0.822911	-0.983457	0.544995	-0.654675
3.390000	0.813066	-0.985433	0.538420	-0.660194
3.400000	0.803203	-0.987248	0.531792	-0.665542
3.410000	0.793322	-0.988894	0.525110	-0.670668
3.420000	0.783425	-0.990363	0.518379	-0.675524
3.430000	0.773515	-0.991652	0.511601	-0.680063
3.440000	0.763593	-0.992756	0.504779	-0.684241
3.450000	0.753661	-0.993674	0.497917	-0.688017
3.460000	0.743720	-0.994404	0.491020	-0.691354
3.470000	0.733773	-0.994950	0.484092	-0.694218
3.480000	0.723822	-0.995316	0.477137	-0.696581
3.490000	0.713867	-0.995507	0.470162	-0.698418
3.500000	0.703912	-0.995532	0.463171	-0.699709
3.510000	0.693957	-0.995400	0.456170	-0.700442
3.520000	0.684005	-0.995122	0.449164	-0.700608
3.530000	0.674055	-0.994704	0.442159	-0.700205
3.540000	0.664111	-0.994152	0.435162	-0.699236
3.550000	0.654173	-0.993473	0.428177	-0.697710
3.560000	0.644242	-0.992669	0.421209	-0.695643
3.570000	0.634320	-0.991742	0.414265	-0.693056
3.580000	0.624407	-0.990693	0.407350	-0.689973
3.590000	0.614506	-0.989519	0.400467	-0.686426
3.600000	0.604617	-0.988217	0.393623	-0.682449
3.610000	0.594742	-0.986780	0.386820	-0.678082
3.620000	0.584882	-0.985202	0.380062	-0.673368
3.630000	0.575039	-0.983471	0.373353	-0.668352
3.640000	0.565213	-0.981579	0.366696	-0.663083
3.650000	0.555408	-0.979515	0.360093	-0.657609
3.660000	0.545624	-0.977267	0.353544	-0.651980
3.670000	0.535863	-0.974823	0.347053	-0.646248
3.680000	0.526128	-0.972176	0.340620	-0.640461
3.690000	0.516420	-0.969316	0.334244	-0.634670
3.700000	0.506742	-0.966234	0.327926	-0.628919
3.710000	0.497096	-0.962924	0.321665	-0.623255
3.720000	0.487485	-0.959385	0.315461	-0.617717
3.730000	0.477909	-0.955614	0.309311	-0.612344
3.740000	0.468373	-0.951615	0.303213	-0.607169
3.750000	0.458878	-0.947391	0.297166	-0.602223
3.760000	0.449426	-0.942950	0.291168	-0.597528
3.770000	0.440020	-0.938301	0.285215	-0.593107
3.780000	0.430661	-0.933452	0.279305	-0.588972
3.790000	0.421351	-0.928413	0.273434	-0.585135
3.800000	0.412093	-0.923196	0.267601	-0.581599
3.810000	0.402888	-0.917813	0.261802	-0.578364
3.820000	0.393737	-0.912272	0.256033	-0.575425
3.830000	0.384643	-0.906580	0.250292	-0.572771
3.840000	0.375606	-0.900742	0.244576	-0.570388
3.850000	0.366629	-0.894766	0.238884	-0.568257
3.860000	0.357711	-0.888655	0.233211	-0.566354
3.870000	0.348856	-0.882411	0.227556	-0.564652
3.880000	0.340064	-0.876036	0.221917	-0.563121
3.890000	0.331336	-0.869529	0.216293	-0.561728
3.900000	0.322673	-0.862890	0.210682	-0.560437
3.910000	0.314078	-0.856122	0.205084	-0.559209
3.920000	0.305551	-0.849224	0.199498	-0.558005
3.930000	0.297094	-0.842198	0.193924	-0.556783
3.940000	0.288708	-0.835047	0.188362	-0.555504
3.950000	0.280394	-0.827770	0.182814	-0.554124
3.960000	0.272153	-0.820371	0.177280	-0.552603
3.970000	0.263987	-0.812848	0.171763	-0.550900
3.980000	0.255896	-0.805202	0.166263	-0.548976
3.990000	0.247883	-0.797432	0.160784	-0.546795
4.000000	0.239948	-0.789539	0.155328	-0.544321
4.010000	0.232093	-0.781518	0.149899	-0.541523
4.020000	0.224318	-0.773368	0.144499	-0.538371
4.030000	0.216626	-0.765089	0.139132	-0.534840
4.040000	0.209017	-0.756678	0.133803	-0.530907
4.050000	0.201493	-0.748134	0.128516	-0.526555
4.060000	0.194055	-0.739457	0.123274	-0.521770
4.070000	0.186704	-0.730646	0.118082	-0.516541
4.080000	0.179442	-0.721705	0.112944	-0.510865
4.090000	0.172270	-0.712640	0.107866	-0.504739
4.100000	0.165190	-0.703457	0.102851	-0.498166
4.110000	0.158201	-0.694163	0.097904	-0.491156
4.120000	0.151307	-0.684768	0.093029	-0.483720
4.130000	0.144506	-0.675282	0.088231	-0.475876
4.140000	0.137801	-0.665713	0.083513	-0.467645
4.150000	0.131192	-0.656070	0.078879	-0.459050
4.160000	0.124680	-0.646359	0.074333	-0.450121
4.170000	0.118265	-0.636584	0.069878	-0.440891
4.180000	0.111949	-0.626749	0.065516	-0.431393
4.190000	0.105731	-0.616854	0.061251	-0.421667
4.200000	0.099612	-0.606899	0.057084	-0.411751
4.210000	0.093593	-0.596878	0.053016	-0.401688
4.220000	0.087675	-0.586785	0.049050	-0.391519
4.230000	0.081857	-0.576617	0.045186	-0.381289
4.240000	0.076143	-0.566366	0.041425	-0.371039
4.250000	0.070530	-0.556027	0.037765	-0.360813
4.260000	0.065022	-0.545595	0.034208	-0.350652
4.270000	0.059619	-0.535064	0.030752	-0.340595
4.280000	0.054321	-0.524431	0.027396	-0.330680
4.290000	0.049131	-0.513694	0.024138	-0.320942
4.300000	0.044048	-0.502849	0.020976	-0.311410
4.310000	0.039074	-0.491898	0.017909	-0.302115
4.320000	0.034210	-0.480840	0.014933	-0.293080
4.330000	0.029458	-0.469677	0.012046	-0.284324
